0.000000000000000000e+00 -1.294008499999999895e+00 -2.027301200000000136e+00 -3.552733899999999778e+00 -4.900346800000000336e+00 -4.752163200000000032e+00 -4.271496499999999585e+00 -3.306353399999999887e+00 -2.351933299999999782e+00 -1.665102700000000047e+00 -9.912268100000000137e-01 -1.766468099999999875e-01 4.426611500000000032e-01 7.783693400000000207e-01 9.426562200000000447e-01 9.163515599999999539e-01 8.291707099999999775e-01 8.728150099999999467e-01 7.872867399999999849e-01 3.605358200000000068e-01 2.142824600000000079e-01 3.199019499999999905e-01 3.061888300000000229e-01 4.207903700000000247e-01 4.404325900000000127e-01 4.975022499999999792e-01 5.511230700000000482e-01 5.270751000000000186e-01 5.007677900000000459e-01 5.521065600000000240e-01 5.061910600000000260e-01 5.148534500000000458e-01 3.261547900000000277e-01 2.779098999999999875e-01 2.979239300000000035e-01 1.974352400000000118e-01 1.533931900000000126e-01 1.155804600000000064e-02 6.996976100000000531e-02 -1.482567299999999928e-02 -5.886204500000000173e-02 -7.537441500000000016e-02 -1.426656400000000102e-01 -6.618091299999999400e-02 -5.608188800000000335e-02 -4.805563899999999722e-02 -4.882870699999999897e-03 6.255040000000000600e-02 2.625214600000000051e-02 2.548603600000000011e-02 4.249054099999999973e-02 2.460412199999999910e-02 -9.614467200000000741e-03 3.306151099999999829e-03 9.554622800000000735e-03 -1.143982399999999983e-01 -1.020095099999999977e-01 -4.148683000000000232e-02 -1.566223999999999950e-01 -6.792053400000000463e-02 -8.307074899999999928e-02 -2.224495599999999906e-01 -1.555130899999999927e-01 -1.434438199999999997e-01 -2.343682900000000069e-01 -1.935997100000000082e-01 -1.760152799999999962e-01 -1.918723800000000090e-01 -2.485295399999999932e-01 -2.178473300000000057e-01 -1.955893300000000057e-01 -2.764549000000000034e-01 -2.396712000000000009e-01 -1.681159499999999862e-01 -2.237213999999999869e-01 -1.298802500000000026e-01 -2.383625199999999944e-01 -2.375381099999999968e-01 -9.270420199999999944e-02 -1.464227499999999904e-01 -1.534659499999999899e-01 -1.315930299999999997e-01 -1.804318199999999928e-01 -6.978809699999999339e-02 -3.375140499999999821e-02 -1.054192999999999936e-01 -5.517621400000000120e-02 -3.870081100000000163e-02 -7.032383600000000068e-02 -6.390730699999999653e-02 6.360832099999999892e-03 -9.312928299999999326e-02 6.448151700000000208e-02 -2.733038900000000007e-02 4.938879799999999591e-03 1.391526399999999941e-01 1.306276999999999959e-02 2.597629699999999819e-01 1.420980099999999968e-01 1.058899199999999985e-01 9.857416099999999348e-02 1.042534600000000061e-01 7.202370099999999553e-02 6.615169299999999752e-02 8.096842299999999770e-02 1.439574899999999935e-01 1.388582100000000097e-01 2.421547699999999914e-01 1.687051099999999915e-01 4.302899600000000269e-01 7.243902100000000344e-01 8.741630200000000128e-01 1.107361400000000051e+00 1.551562200000000002e+00 1.870253799999999966e+00 1.829696500000000059e+00 1.794890400000000108e+00 1.403148400000000073e+00 1.090333599999999903e+00 8.694436500000000123e-01 3.410521699999999878e-01 1.063005300000000042e-01 -9.389877400000000429e-02 -6.706943699999999564e-02 -8.150797499999999640e-02 -7.093281599999999576e-02 -5.819972100000000287e-02 3.333911800000000092e-02 -8.270178300000000093e-02 4.090682300000000188e-02 -7.690790499999999863e-02 -6.814502199999999954e-02 3.868691899999999739e-01 9.302264900000000170e-01 1.128195999999999977e+00 1.123160699999999901e+00 1.031276199999999976e+00 7.926644900000000549e-01 7.567403499999999505e-01 1.186965100000000106e+00 -3.784301899999999996e-01
0.000000000000000000e+00 5.920808800000000316e-01 -1.431191000000000102e+00 -3.290826500000000099e+00 -4.519045700000000387e+00 -4.218366999999999756e+00 -3.098227899999999924e+00 -2.090224800000000105e+00 -1.706184399999999934e+00 -1.280886799999999992e+00 -4.711864499999999789e-01 -3.343475100000000144e-01 -3.988383899999999871e-01 -3.947855100000000061e-01 -4.701292899999999775e-01 -4.308659300000000081e-01 -4.107636299999999907e-01 -3.590803499999999926e-01 -4.780967999999999885e-01 -5.124501000000000195e-01 -4.746286100000000063e-01 -5.231403900000000107e-01 -4.675327499999999969e-01 -4.944641399999999964e-01 -4.919363999999999959e-01 -6.239763200000000287e-01 -6.765065599999999790e-01 -6.668529699999999893e-01 -7.597488599999999703e-01 -8.132184900000000161e-01 -8.598523000000000138e-01 -9.647105099999999656e-01 -1.050097899999999917e+00 -1.021494700000000089e+00 -9.421612999999999793e-01 -1.074558099999999961e+00 -9.968910800000000405e-01 -1.034330799999999995e+00 -9.955171200000000331e-01 -9.078751400000000249e-01 -8.470954400000000328e-01 -7.763643700000000258e-01 -6.243394100000000391e-01 -5.532239100000000409e-01 -4.133842200000000244e-01 -3.816263799999999873e-01 -2.952909699999999860e-01 -7.401743399999999307e-02 -7.917476599999999365e-02 -3.652343499999999993e-02 1.816186900000000062e-02 2.221473800000000123e-04 1.402404100000000098e-01 8.757668899999999923e-02 1.235848699999999994e-01 7.884497199999999928e-02 7.976646699999999368e-02 2.252449400000000046e-01 2.506209400000000143e-01 2.552029699999999734e-01 2.356393999999999989e-01 3.369674500000000017e-01 3.673374200000000256e-01 2.816504499999999966e-01 3.739206199999999813e-01 3.505489999999999995e-01 4.098465099999999972e-01 4.799400999999999806e-01 4.781578799999999796e-01 5.084398900000000054e-01 5.432281199999999810e-01 6.456157799999999725e-01 5.842041100000000542e-01 6.157640599999999464e-01 5.871785200000000371e-01 6.004802200000000090e-01 6.275537399999999710e-01 5.956044499999999520e-01 6.591253700000000437e-01 5.520424999999999915e-01 5.202654599999999574e-01 4.944197599999999859e-01 4.867299900000000012e-01 4.623523099999999886e-01 4.384942600000000246e-01 4.818935200000000196e-01 4.036605500000000069e-01 4.177776999999999741e-01 3.683629099999999879e-01 3.808525500000000119e-01 3.054561199999999976e-01 3.958722399999999864e-01 3.872626900000000205e-01 3.053922800000000159e-01 4.042027499999999995e-01 2.928262699999999996e-01 3.093089500000000269e-01 4.425802300000000189e-01 5.390749900000000316e-01 7.584759300000000204e-01 9.660324700000000320e-01 1.172867199999999999e+00 1.403481299999999932e+00 1.596618499999999941e+00 1.823635499999999965e+00 1.939766799999999902e+00 1.982387700000000086e+00 1.879157600000000095e+00 1.802694299999999972e+00 1.549320500000000100e+00 1.362382399999999993e+00 1.039600000000000080e+00 7.205708199999999453e-01 2.285075500000000037e-01 -1.495230899999999974e-01 -2.294858999999999927e-01 -2.245539300000000127e-01 -2.461355199999999965e-01 -3.027175999999999756e-01 -2.709866499999999956e-01 -2.872735900000000231e-01 -2.715109099999999942e-01 -2.117296399999999967e-01 -2.469623800000000091e-01 -2.895247599999999921e-01 -2.470149000000000095e-01 -1.981748500000000135e-01 -2.457396699999999934e-01 -2.517412800000000117e-01 -1.094289100000000042e-01 2.555881799999999981e-01 1.139206799999999964e+00 1.322937900000000111e+00 1.038771499999999959e+00 1.027636500000000064e+00 8.207929200000000369e-01 4.355736000000000052e-01 5.510844700000000485e-01 8.649908099999999989e-01 1.690847699999999953e+00 7.040292099999999609e-01
0.000000000000000000e+00 -9.151351200000000519e-02 -1.887954700000000097e+00 -2.994351500000000055e+00 -4.254804700000000217e+00 -4.176483700000000354e+00 -3.460067099999999840e+00 -2.407140099999999894e+00 -1.651797200000000077e+00 -1.543233999999999995e+00 -9.780192500000000067e-01 -5.606281600000000420e-01 -5.588313299999999595e-01 -5.969030899999999695e-01 -6.011673899999999682e-01 -4.836455700000000246e-01 -4.873427000000000175e-01 -4.647861500000000090e-01 -5.066126499999999977e-01 -4.848097299999999943e-01 -4.390673199999999832e-01 -5.020440999999999931e-01 -4.973075299999999976e-01 -4.242779999999999885e-01 -4.875085699999999744e-01 -5.775303499999999701e-01 -6.224174500000000387e-01 -6.959408099999999653e-01 -6.141957700000000298e-01 -6.599165099999999562e-01 -6.193813999999999709e-01 -6.317045700000000208e-01 -6.596957300000000357e-01 -6.887632599999999883e-01 -7.885189900000000307e-01 -8.474139699999999609e-01 -8.122691399999999451e-01 -7.491021399999999719e-01 -7.263881699999999997e-01 -5.969866400000000128e-01 -5.839589200000000480e-01 -5.133145300000000466e-01 -4.443805100000000063e-01 -3.829468100000000264e-01 -2.350968099999999894e-01 -3.483255900000000183e-01 -1.634846000000000077e-01 -1.284444799999999998e-01 -6.759917799999999588e-02 -8.104574899999999679e-03 -1.101959400000000061e-01 4.282006000000000007e-02 1.484394099999999939e-01 2.265057300000000023e-02 1.519347300000000074e-02 3.948755799999999899e-02 -3.390952400000000339e-02 5.910356700000000268e-02 1.019046900000000061e-01 8.040617499999999640e-02 1.328540099999999946e-01 8.256399899999999903e-02 1.237045499999999965e-01 1.947293999999999969e-01 1.961738700000000002e-01 1.886292499999999983e-01 2.248618900000000087e-01 3.710535600000000045e-01 3.126261599999999863e-01 4.100864599999999860e-01 4.702429699999999824e-01 4.887723999999999958e-01 5.122479199999999677e-01 4.681765800000000088e-01 6.217563999999999869e-01 5.352197199999999544e-01 5.839621299999999682e-01 7.144267699999999888e-01 5.658265300000000497e-01 5.414843200000000190e-01 7.124504200000000287e-01 7.137009800000000403e-01 6.603189600000000103e-01 5.064721399999999596e-01 6.511133300000000457e-01 4.943167299999999820e-01 5.085970899999999739e-01 5.789330799999999888e-01 4.284092600000000139e-01 4.834991299999999992e-01 4.973406799999999794e-01 5.343891200000000508e-01 5.051121600000000322e-01 3.892360100000000211e-01 3.788384699999999827e-01 6.437101200000000523e-01 6.786282200000000042e-01 8.291332000000000146e-01 9.451938100000000231e-01 1.224955999999999934e+00 1.306936700000000062e+00 1.637732799999999989e+00 1.816749100000000006e+00 2.057897000000000087e+00 2.277692000000000050e+00 2.094920500000000185e+00 2.030416600000000127e+00 1.776589900000000055e+00 1.591761800000000004e+00 1.435479399999999961e+00 1.135442499999999910e+00 7.912476899999999480e-01 2.621384299999999778e-01 7.356533799999999401e-02 -5.970593600000000112e-02 -1.945174699999999979e-01 -1.717785099999999954e-01 -1.544414899999999868e-01 -2.357955899999999994e-01 -1.904993399999999892e-01 -1.703713699999999942e-01 -1.575933099999999865e-01 -6.896161100000000599e-02 -1.199278899999999953e-01 -1.804209200000000124e-01 -8.707258499999999402e-02 -1.355868199999999968e-01 -1.163039299999999998e-01 -4.987973200000000301e-02 1.792292699999999961e-01 8.266640899999999625e-01 1.428295000000000092e+00 1.175194700000000037e+00 9.207343599999999739e-01 4.498999200000000087e-01 -7.370505600000000490e-02 -4.797447499999999976e-01 -2.522433000000000036e-01 6.106791099999999695e-01 9.513681400000000288e-01 -6.955535900000000549e-01
0.000000000000000000e+00 1.753771200000000086e+00 3.774473400000000201e-01 -1.531643599999999994e+00 -2.836151200000000205e+00 -3.872459200000000212e+00 -4.149665099999999995e+00 -3.165177499999999977e+00 -1.930740200000000018e+00 -1.629826400000000008e+00 -1.085944500000000090e+00 -2.716876999999999834e-02 1.181504699999999936e-01 -6.287184199999999723e-02 -1.053984200000000065e-02 1.550651800000000038e-02 1.325458900000000065e-02 1.984993700000000152e-02 -1.447676300000000083e-01 -1.533773599999999904e-01 -8.227929100000000440e-02 -1.059642600000000046e-01 -2.452679299999999951e-01 -2.300509400000000093e-01 -2.780116799999999833e-01 -3.302200900000000217e-01 -4.114306300000000194e-01 -3.811431699999999756e-01 -5.008214300000000119e-01 -5.688158599999999510e-01 -6.841241099999999520e-01 -8.258810899999999844e-01 -8.439705899999999650e-01 -9.782114899999999613e-01 -9.653642799999999635e-01 -1.048338800000000015e+00 -1.160875600000000007e+00 -1.319927499999999920e+00 -1.268731899999999913e+00 -1.278261300000000045e+00 -1.280483999999999956e+00 -1.222145700000000001e+00 -1.190442299999999953e+00 -1.088943100000000053e+00 -1.014434700000000023e+00 -8.531225399999999848e-01 -8.024136800000000180e-01 -7.987851599999999941e-01 -4.869059800000000160e-01 -4.140419699999999814e-01 -2.251153499999999918e-01 -2.065573800000000126e-01 -1.778077000000000130e-01 -9.645110599999999479e-02 -4.684676699999999749e-02 -2.643595499999999987e-01 -1.575623100000000110e-01 -5.932844400000000101e-02 -6.558851300000000106e-02 -6.578924299999999725e-02 -6.919973599999999780e-02 4.327034300000000278e-02 1.356782500000000002e-01 9.577940899999999591e-02 3.193321899999999880e-02 2.285559500000000077e-01 2.152877400000000052e-01 3.822873199999999860e-01 3.095697800000000166e-01 3.698043899999999828e-01 6.271199899999999605e-01 6.192735600000000007e-01 7.292251400000000494e-01 6.984536300000000475e-01 8.242438100000000212e-01 7.524742599999999504e-01 7.867794299999999463e-01 7.481869500000000173e-01 6.586511299999999736e-01 6.569019799999999965e-01 7.240848800000000418e-01 7.767756099999999497e-01 8.300588300000000253e-01 5.393268599999999635e-01 5.779793699999999923e-01 4.307687800000000178e-01 6.228338799999999509e-01 4.303531800000000018e-01 3.328287999999999802e-01 3.943636400000000153e-01 4.724355399999999872e-01 2.393157800000000057e-01 2.937267900000000154e-01 3.699779400000000051e-01 4.046454199999999779e-01 3.291678000000000104e-01 2.612815800000000133e-01 2.454635400000000078e-01 3.538767500000000177e-01 3.736653200000000230e-01 2.374740100000000131e-01 6.090332200000000418e-01 6.335929399999999934e-01 1.022196600000000011e+00 1.133606499999999961e+00 1.131211799999999990e+00 1.407758700000000029e+00 1.609397500000000036e+00 1.965797299999999970e+00 1.622137299999999893e+00 1.409718199999999921e+00 1.015194600000000058e+00 8.528867599999999660e-01 8.651637399999999589e-01 9.060666699999999629e-01 7.643083000000000515e-01 1.888157599999999992e-01 -1.493359099999999884e-01 -1.727928200000000136e-01 -2.434872399999999937e-01 -2.863700200000000029e-01 -3.039852399999999899e-01 -2.644091299999999922e-01 -2.000774399999999953e-01 -2.776042400000000021e-01 -2.721899500000000138e-01 -1.657343799999999867e-01 -3.719280200000000258e-01 -2.111218800000000118e-01 -2.102920600000000029e-01 -8.140193499999999471e-02 2.772191399999999750e-01 1.204625300000000010e+00 1.981788799999999906e+00 1.716358499999999898e+00 2.243991499999999917e+00 2.236272299999999991e+00 1.523002200000000084e+00 -1.852044399999999980e-01 -6.623014400000000190e-01 -1.941774200000000172e-02
0.000000000000000000e+00 1.665162400000000043e+00 -1.876701799999999976e+00 -4.007871100000000020e+00 -4.702600399999999681e+00 -3.747377699999999923e+00 -2.803137599999999896e+00 -1.393565200000000059e+00 -9.740733799999999887e-01 -7.625835600000000492e-01 2.710466599999999948e-01 7.903566100000000150e-01 6.300697299999999945e-01 5.442832800000000359e-01 6.459866100000000166e-01 6.291634000000000393e-01 4.786900800000000178e-01 4.472417899999999724e-01 3.317638500000000268e-01 4.165581999999999896e-01 3.070683699999999794e-01 1.988611700000000038e-01 1.974469199999999980e-01 9.535719099999999393e-02 1.068566999999999989e-01 -2.686620199999999875e-02 -8.909224200000000204e-02 -9.473448800000000558e-02 -1.941758899999999899e-01 -1.993862100000000082e-01 -4.442212999999999856e-01 -4.575421499999999808e-01 -4.057020399999999860e-01 -4.991025399999999834e-01 -5.496390500000000179e-01 -6.185154999999999959e-01 -6.373954099999999956e-01 -6.064043700000000259e-01 -5.890379999999999505e-01 -6.643892799999999710e-01 -7.340167300000000061e-01 -7.205622099999999808e-01 -6.580663700000000116e-01 -5.528757399999999489e-01 -4.875610899999999748e-01 -3.759452899999999875e-01 -2.826335600000000059e-01 -1.489918899999999879e-01 -1.042453500000000005e-01 -1.405376399999999984e-02 2.003926799999999897e-03 1.060341399999999989e-01 9.918896900000000183e-02 4.190543299999999888e-02 -3.713738899999999982e-02 6.154122800000000337e-02 6.296138900000000649e-02 1.131287100000000038e-02 1.165976700000000005e-01 1.372621099999999927e-01 1.090960599999999947e-01 9.125906100000000243e-02 1.407530200000000065e-01 2.322246400000000099e-01 3.584517699999999890e-02 1.989211399999999963e-01 2.360773399999999966e-01 3.606301599999999774e-01 3.723544799999999877e-01 4.521830800000000150e-01 5.825136600000000442e-01 5.630430800000000291e-01 7.215886299999999531e-01 6.710691899999999821e-01 7.920672800000000402e-01 7.767480300000000337e-01 7.607202600000000370e-01 8.217724699999999771e-01 7.834742900000000176e-01 8.545071800000000328e-01 8.691858799999999663e-01 7.308761900000000367e-01 6.436355700000000457e-01 6.784349899999999600e-01 5.044925999999999577e-01 5.230130100000000004e-01 4.458947100000000274e-01 3.716946799999999995e-01 2.842595399999999772e-01 3.453012200000000198e-01 2.351089799999999952e-01 1.611278799999999942e-02 7.381647299999999357e-02 7.341310099999999450e-02 -7.306104900000000291e-02 -2.409552100000000169e-02 -9.073013700000000237e-02 9.030926400000000021e-02 1.887255399999999972e-01 5.182787500000000103e-01 7.224851599999999596e-01 9.020394699999999544e-01 1.082660399999999967e+00 1.315120199999999961e+00 1.695804300000000042e+00 1.821544000000000052e+00 1.668131199999999925e+00 1.632719199999999926e+00 1.427812099999999917e+00 1.085211300000000101e+00 8.395007899999999967e-01 4.552556300000000222e-01 2.236610699999999896e-01 -2.520490200000000125e-01 -5.993774400000000391e-01 -7.784315800000000118e-01 -8.886389199999999988e-01 -8.955197999999999769e-01 -9.381160400000000399e-01 -1.088228500000000043e+00 -1.031018800000000013e+00 -9.498464500000000088e-01 -1.048599899999999918e+00 -9.195231099999999769e-01 -9.844600999999999491e-01 -9.314739800000000347e-01 -9.691509299999999660e-01 -1.071281600000000056e+00 -9.129014199999999635e-01 -9.503134300000000145e-01 -6.748503900000000222e-01 1.128321399999999974e-01 9.487135199999999768e-01 1.300584500000000032e+00 1.696401400000000059e+00 2.231342699999999901e+00 1.776272899999999932e+00 8.554228600000000071e-01 -3.616230200000000172e-01 -2.238458799999999971e-01 -1.220295499999999977e+00
0.000000000000000000e+00 -4.404786399999999769e-01 -3.058935200000000076e+00 -4.039029000000000202e+00 -4.480440599999999662e+00 -4.275748799999999683e+00 -3.267443999999999793e+00 -1.922271000000000063e+00 -1.692903800000000070e+00 -1.080046999999999979e+00 -2.389764699999999964e-01 -1.868422600000000100e-01 -2.368545999999999985e-01 -3.086703000000000086e-01 -2.424919600000000064e-01 -2.722417100000000256e-01 -1.682670300000000119e-01 -2.320573300000000061e-01 -2.213505500000000070e-01 -2.790654900000000271e-01 -2.497320899999999899e-01 -2.719602799999999987e-01 -2.841997900000000077e-01 -2.168877100000000113e-01 -3.078235699999999908e-01 -3.587369999999999726e-01 -3.577503200000000105e-01 -2.897339899999999968e-01 -4.814431100000000074e-01 -3.878372199999999825e-01 -4.972789200000000132e-01 -4.926494200000000045e-01 -5.923492700000000388e-01 -6.989427799999999857e-01 -7.076362800000000064e-01 -7.128362099999999701e-01 -7.904151200000000266e-01 -7.639565499999999565e-01 -7.259607200000000038e-01 -7.500940799999999964e-01 -6.965548000000000295e-01 -6.211828000000000349e-01 -5.505855800000000189e-01 -5.518595200000000478e-01 -3.969164199999999920e-01 -2.457509900000000025e-01 -2.443260299999999996e-01 -1.061627099999999935e-01 -5.107008600000000065e-02 -4.429061399999999898e-02 7.723311500000000496e-02 9.987690400000000246e-02 4.933245999999999638e-03 1.075381900000000057e-01 2.343641200000000091e-01 1.703441699999999892e-01 2.039920799999999923e-01 2.879761900000000208e-01 3.402922600000000131e-01 3.073159899999999833e-01 4.390885700000000114e-01 3.495451800000000109e-01 3.647115599999999902e-01 4.839685100000000184e-01 4.484123500000000151e-01 3.401500800000000213e-01 4.100116600000000000e-01 5.491880199999999990e-01 4.495800799999999930e-01 6.310390000000000166e-01 5.646109599999999951e-01 6.114398500000000070e-01 6.002521899999999633e-01 6.345665700000000520e-01 7.463538699999999748e-01 6.996919600000000017e-01 6.080772100000000346e-01 5.558223399999999703e-01 4.892532299999999834e-01 5.784600100000000245e-01 5.069201300000000243e-01 5.448452499999999477e-01 5.176098900000000169e-01 5.834313399999999650e-01 4.087853300000000023e-01 4.206321599999999772e-01 4.493499599999999927e-01 3.965120200000000206e-01 4.035397800000000146e-01 4.323480800000000235e-01 4.635087199999999852e-01 3.277347999999999928e-01 3.923210899999999834e-01 3.490948099999999776e-01 3.288916399999999851e-01 3.978102700000000214e-01 3.578899199999999725e-01 4.199721799999999727e-01 2.974164100000000199e-01 3.539917799999999781e-01 5.873968999999999996e-01 9.375072599999999534e-01 1.100572700000000070e+00 1.253382699999999961e+00 1.378615700000000110e+00 1.600148499999999974e+00 1.778126199999999990e+00 1.824175499999999950e+00 1.854489400000000066e+00 1.676850299999999905e+00 1.453656400000000071e+00 1.189678800000000036e+00 1.052738100000000010e+00 8.443587500000000468e-01 3.835957500000000131e-01 -2.014575299999999888e-02 -3.297972900000000207e-01 -3.680334100000000053e-01 -3.570558300000000185e-01 -2.681844899999999976e-01 -3.530321100000000101e-01 -5.141310399999999836e-01 -5.779612200000000533e-01 -4.587529699999999822e-01 -3.744581599999999844e-01 -3.495931500000000192e-01 -4.336929800000000057e-01 -3.953841399999999950e-01 -4.312993399999999755e-01 -3.372814199999999984e-01 -1.684470999999999885e-01 2.493091400000000124e-01 1.206374300000000011e+00 1.400897400000000070e+00 1.480892000000000097e+00 1.484485099999999891e+00 8.162218399999999763e-01 2.485278900000000013e-01 -4.762186600000000158e-01 4.075492800000000138e-01 -6.457361799999999930e-01
0.000000000000000000e+00 -4.996166499999999955e-01 -2.471587599999999885e+00 -3.558207100000000178e+00 -3.659471599999999825e+00 -3.828269300000000097e+00 -3.402014400000000105e+00 -2.353368800000000149e+00 -1.565911800000000076e+00 -1.434255999999999975e+00 -1.068825200000000031e+00 -2.837201699999999938e-01 -2.554029500000000175e-01 -3.438179000000000096e-01 -2.280107600000000068e-01 -3.419047199999999953e-01 -4.361416699999999813e-01 -4.025140999999999858e-01 -3.321627799999999908e-01 -3.216737800000000203e-01 -2.505327800000000105e-01 -2.941791599999999951e-01 -3.608555800000000091e-01 -3.335953799999999969e-01 -3.218518799999999791e-01 -3.945650099999999938e-01 -4.103952799999999734e-01 -4.209256699999999740e-01 -3.605800399999999906e-01 -4.100670200000000043e-01 -5.680452999999999752e-01 -4.582770899999999981e-01 -5.605473499999999998e-01 -6.252106499999999789e-01 -4.892522000000000260e-01 -5.579459599999999631e-01 -4.562369499999999745e-01 -5.068005799999999450e-01 -6.092239799999999983e-01 -5.089887300000000003e-01 -4.365822200000000208e-01 -3.391261999999999888e-01 -2.453756400000000060e-01 -1.725704999999999878e-01 -3.106503899999999985e-01 -3.050355100000000097e-01 -1.569811100000000070e-01 -6.019465300000000074e-02 -3.085346900000000142e-02 -2.380040300000000122e-02 1.049039100000000030e-01 2.248761999999999983e-01 1.020386999999999961e-01 -3.657110499999999959e-02 -9.020477899999999882e-02 9.613534999999999442e-02 1.048718099999999959e-01 1.663648699999999842e-02 1.532071799999999984e-01 1.620615900000000054e-01 1.363192500000000029e-01 1.949068800000000046e-01 1.811206499999999942e-01 5.991564900000000138e-02 2.115319800000000083e-01 2.707193999999999989e-01 1.516832200000000075e-01 2.974650500000000086e-01 3.123888599999999904e-01 3.333337200000000000e-01 4.008796399999999815e-01 3.918512900000000188e-01 5.712871999999999950e-01 5.686773200000000417e-01 5.204262800000000189e-01 5.144444599999999923e-01 6.360192300000000465e-01 6.294383199999999956e-01 5.032315200000000432e-01 4.401280799999999771e-01 4.938852699999999873e-01 5.319151399999999530e-01 4.737602399999999991e-01 4.263427000000000189e-01 4.424650099999999919e-01 4.787150099999999964e-01 4.639531399999999861e-01 5.016519200000000289e-01 4.514672900000000211e-01 3.960284600000000266e-01 4.565809200000000012e-01 3.086495699999999842e-01 3.342969100000000027e-01 3.975908400000000009e-01 3.333985500000000157e-01 3.062241199999999886e-01 4.942908400000000091e-01 7.352409800000000439e-01 8.410629899999999548e-01 9.500053499999999707e-01 1.089576199999999995e+00 1.415216500000000099e+00 1.780472999999999972e+00 1.971591799999999894e+00 2.160959099999999911e+00 2.099782900000000119e+00 1.903898599999999997e+00 1.799429399999999957e+00 1.556176400000000015e+00 1.130225100000000094e+00 7.695836200000000238e-01 3.280910200000000110e-01 4.202863800000000011e-02 -1.410378700000000096e-01 -3.388155400000000261e-01 -2.732139900000000177e-01 -4.305006100000000058e-01 -3.153780099999999864e-01 -1.973873399999999945e-01 -2.141865199999999914e-01 -3.064007499999999995e-01 -4.966228899999999835e-01 -3.843659700000000012e-01 -3.148478699999999741e-01 -2.607939100000000177e-01 -2.927925599999999795e-01 -2.940546299999999835e-01 -2.038842200000000049e-01 -1.419666099999999931e-02 5.949180800000000158e-01 1.264888699999999977e+00 1.326043800000000106e+00 1.742965099999999934e+00 1.779298999999999964e+00 1.181382600000000060e+00 5.828212999999999866e-01 2.339089199999999924e-01 7.154874300000000353e-01 6.356983299999999781e-01 -7.908644400000000019e-01 -3.050226299999999835e+00
0.000000000000000000e+00 1.423231099999999971e+00 1.673122599999999904e+00 3.513292499999999818e-01 -1.463254800000000078e+00 -2.927487399999999962e+00 -4.007862000000000258e+00 -3.711384100000000075e+00 -2.651975499999999819e+00 -1.913532999999999928e+00 -1.793887000000000009e+00 -7.192328999999999528e-01 -2.023518699999999892e-01 -1.602771900000000138e-01 -2.071295099999999889e-01 -2.995270999999999906e-01 -1.385282999999999931e-01 -3.364983899999999806e-01 -2.170076400000000016e-01 -3.059819200000000183e-01 -3.496811599999999909e-01 -3.094551999999999858e-01 -3.327247400000000188e-01 -3.925327900000000203e-01 -4.305410900000000152e-01 -4.856788499999999953e-01 -6.187253600000000020e-01 -6.453125699999999743e-01 -7.289155499999999677e-01 -7.214972299999999894e-01 -8.174838800000000516e-01 -8.815773500000000373e-01 -1.009294499999999983e+00 -9.715588899999999528e-01 -1.006789600000000062e+00 -1.106791000000000080e+00 -1.080735400000000013e+00 -1.261991499999999933e+00 -1.221390100000000034e+00 -1.161685099999999915e+00 -1.172237100000000032e+00 -1.100520100000000001e+00 -1.155677999999999983e+00 -9.976148900000000319e-01 -9.450558700000000201e-01 -7.578863999999999601e-01 -6.991940300000000219e-01 -6.031773099999999665e-01 -4.096351999999999771e-01 -4.075763000000000025e-01 -1.502974199999999871e-01 -2.661447200000000013e-01 -1.367973299999999948e-01 -7.695618899999999429e-02 4.089765499999999804e-02 -6.682692299999999641e-02 1.630268500000000079e-02 6.565204899999999705e-03 3.088911100000000035e-02 7.706097800000000220e-02 7.981379800000000524e-02 8.741024399999999805e-02 1.760096699999999861e-02 1.750715200000000082e-01 1.184666100000000000e-01 2.122545600000000088e-01 2.381955000000000044e-01 2.112694499999999975e-01 2.354059199999999907e-01 3.167754300000000245e-01 2.911558300000000044e-01 2.890561799999999959e-01 3.354781099999999960e-01 3.987023699999999726e-01 5.170529299999999662e-01 4.537011899999999764e-01 5.140443399999999885e-01 5.650420299999999729e-01 4.840321200000000101e-01 5.387954900000000436e-01 5.115043900000000310e-01 5.061714499999999672e-01 3.617254200000000197e-01 3.985060100000000216e-01 4.125042600000000115e-01 3.730475699999999950e-01 3.247747699999999904e-01 4.980109400000000131e-01 3.387925900000000046e-01 3.380801199999999840e-01 4.151201400000000263e-01 3.814126400000000250e-01 3.010259299999999971e-01 3.395763299999999818e-01 2.282401099999999960e-01 2.597038700000000033e-01 3.827993100000000037e-01 1.900620299999999929e-01 2.350829100000000060e-01 2.489426399999999928e-01 4.161176699999999951e-01 6.756773099999999754e-01 9.388640900000000400e-01 1.214828400000000030e+00 1.425753599999999954e+00 1.437732599999999916e+00 1.687485399999999913e+00 2.115750699999999984e+00 2.182570899999999980e+00 2.215739399999999915e+00 2.054773200000000077e+00 1.928571800000000058e+00 1.616549199999999908e+00 1.362840499999999899e+00 1.125910900000000048e+00 5.036039399999999722e-01 -4.207539099999999671e-02 -2.508726900000000093e-01 -3.076894800000000152e-01 -4.507799399999999901e-01 -4.178455300000000205e-01 -2.550048200000000209e-01 -3.283540300000000189e-01 -2.857365800000000178e-01 -2.563342499999999857e-01 -2.386509900000000073e-01 -2.631889600000000273e-01 -1.615327599999999975e-01 -2.297163000000000121e-01 -2.399163400000000057e-01 -2.253438399999999897e-01 -8.123485299999999576e-02 1.868910799999999872e-01 8.198670599999999808e-01 8.983013100000000195e-01 1.037710399999999922e+00 1.318916999999999895e+00 1.633258400000000110e+00 1.492707900000000087e+00 9.258296499999999485e-01 1.610096200000000088e+00
0.000000000000000000e+00 -8.335405799999999754e-01 -1.463315099999999980e+00 -2.267972700000000064e+00 -2.893046899999999866e+00 -3.422044300000000039e+00 -3.966188799999999848e+00 -3.381965999999999806e+00 -2.010687900000000194e+00 -1.699330599999999913e+00 -1.494384399999999946e+00 -5.834829299999999552e-01 -3.743627999999999956e-01 -5.036837800000000254e-01 -6.212777200000000333e-01 -7.264662500000000633e-02 4.609461900000000334e-02 -5.256369600000000419e-01 -6.909148499999999693e-01 -6.525662500000000144e-01 -4.696577800000000247e-01 -3.426263500000000239e-01 -3.734676100000000054e-01 -4.592007100000000119e-01 -7.680876300000000212e-01 -6.539923100000000211e-01 -6.210597799999999502e-01 -6.848695299999999486e-01 -4.820293399999999728e-01 -4.654021799999999986e-01 -5.996352499999999530e-01 -3.847887799999999969e-01 -2.509695200000000015e-01 -3.397865099999999861e-01 -5.271524800000000344e-01 -8.111578400000000189e-01 -2.937343099999999985e-01 -7.212258100000000505e-02 -3.357008899999999740e-01 -5.117659599999999642e-01 -4.675094399999999983e-01 -2.901673299999999942e-02 -3.681339100000000086e-01 -5.327414600000000000e-01 -4.847626199999999774e-01 -3.252581700000000131e-01 -3.454049299999999989e-01 -3.862644900000000159e-01 -3.791347999999999940e-02 -1.179246800000000039e-01 -3.166583800000000171e-01 -3.417754199999999964e-01 -5.058571199999999796e-02 9.064699399999999463e-02 -2.140843699999999891e-02 4.542443699999999807e-02 -4.006518000000000024e-01 -5.366253699999999904e-01 -2.296369299999999891e-01 -2.691550200000000226e-01 -1.779499599999999904e-01 -1.147240499999999941e-01 -1.467933700000000063e-01 -1.866128200000000126e-01 -1.964817199999999986e-01 -1.257496800000000026e-01 -3.582160999999999679e-02 1.087945699999999932e-01 1.348963199999999966e-02 -6.590017899999999970e-03 6.691254500000000383e-02 2.011287300000000056e-01 3.389024700000000112e-01 3.395781399999999728e-01 2.204692099999999988e-01 2.616464099999999959e-01 3.100381099999999779e-01 4.557624499999999856e-01 3.603481299999999887e-01 5.257772200000000451e-01 5.370440199999999553e-01 5.155261700000000058e-01 4.467159099999999938e-01 4.603864500000000026e-01 3.659102200000000082e-01 3.596136999999999806e-01 4.932375099999999901e-01 4.661020599999999847e-01 4.485294100000000173e-01 4.607004800000000233e-01 4.745285899999999724e-01 3.957795700000000250e-01 4.511212000000000000e-01 4.558598799999999951e-01 3.929356900000000041e-01 3.504797199999999946e-01 4.589052499999999868e-01 4.005087600000000192e-01 4.610357199999999822e-01 6.184067399999999548e-01 8.458429499999999823e-01 8.139320100000000391e-01 1.103564100000000048e+00 1.420494600000000052e+00 1.563377100000000075e+00 1.981823799999999913e+00 2.158029099999999811e+00 2.262234199999999973e+00 2.269772099999999959e+00 2.145482799999999912e+00 1.763676599999999928e+00 1.602740899999999913e+00 1.319052499999999961e+00 1.015136800000000061e+00 6.495590199999999870e-01 3.575323999999999725e-01 2.117076200000000130e-01 1.296419099999999991e-01 1.577388200000000018e-01 2.141612300000000080e-01 1.628360399999999875e-01 3.105207199999999723e-01 5.073216999999999866e-01 5.141847600000000185e-01 5.550967999999999458e-01 5.303292699999999638e-01 5.872952700000000359e-01 4.867964599999999864e-01 4.622049699999999928e-01 5.368888699999999625e-01 6.190148500000000054e-01 9.759084999999999566e-01 1.806689200000000106e+00 2.083868199999999948e+00 1.403660499999999978e+00 5.069217799999999885e-01 -6.290530800000000422e-01 -1.348296900000000020e+00 -1.571159200000000089e+00 -1.319732300000000080e+00 -4.087309900000000162e-01
0.000000000000000000e+00 -4.904464900000000127e-01 -2.200741799999999859e+00 -3.232343999999999884e+00 -4.091742599999999896e+00 -4.200020199999999981e+00 -3.769175999999999860e+00 -3.161288799999999899e+00 -1.918228299999999997e+00 -1.359979700000000014e+00 -1.288643900000000064e+00 -6.133382099999999948e-01 -3.701116400000000195e-01 -2.132196899999999895e-01 -2.239613599999999982e-01 -3.642630399999999824e-01 -2.791891599999999918e-01 -3.262401999999999802e-01 -2.415838999999999903e-01 -2.488744300000000076e-01 -2.082957099999999950e-01 -2.864503800000000044e-01 -3.627451800000000004e-01 -2.546695900000000012e-01 -3.428307500000000174e-01 -3.504670500000000022e-01 -2.408572200000000108e-01 -3.618923199999999896e-01 -5.072265299999999533e-01 -3.777878100000000017e-01 -3.220557199999999898e-01 -5.439169600000000049e-01 -6.299266100000000534e-01 -4.563128699999999816e-01 -4.998038300000000045e-01 -4.219468299999999950e-01 -5.252266100000000382e-01 -5.545305699999999449e-01 -3.600208400000000086e-01 -3.507786800000000094e-01 -6.315972800000000387e-01 -5.919870000000000410e-01 -4.174459099999999756e-01 -2.650021100000000129e-01 -3.911065100000000183e-01 -4.177296699999999974e-01 -4.647945900000000075e-02 1.626220700000000075e-01 -8.988020900000000257e-02 1.490495699999999993e-02 2.366764699999999999e-01 1.679860599999999926e-01 1.415783499999999917e-01 2.113759899999999997e-02 4.796753799999999707e-02 -7.014679999999999700e-03 6.452098200000000450e-02 1.542913999999999952e-01 1.194276300000000068e-01 1.578470899999999955e-01 3.092265799999999870e-02 1.229411900000000057e-01 1.927122500000000016e-01 6.038379600000000347e-02 1.114590800000000020e-01 1.244442899999999991e-01 2.666763499999999856e-02 1.139274299999999962e-01 1.790832699999999889e-01 1.785923799999999950e-01 2.693575100000000222e-01 3.985816500000000095e-01 4.395176000000000083e-01 2.981930199999999753e-01 4.033016300000000220e-01 5.384119099999999936e-01 6.951362800000000508e-01 4.663857000000000141e-01 3.865973100000000273e-01 4.469110600000000266e-01 5.883717899999999501e-01 7.019176000000000304e-01 7.231303999999999510e-01 7.206793200000000121e-01 4.666870499999999922e-01 7.164532200000000017e-01 6.381113800000000058e-01 5.394893499999999786e-01 5.801785999999999888e-01 5.105547700000000466e-01 4.733221400000000023e-01 5.132390000000000008e-01 6.872909699999999455e-01 7.509279100000000318e-01 6.259946600000000361e-01 8.655067100000000124e-01 1.133998599999999968e+00 1.357065200000000083e+00 1.356358600000000081e+00 1.356138099999999902e+00 1.724500499999999992e+00 1.881350599999999984e+00 1.749690600000000096e+00 1.650274800000000042e+00 1.574040600000000012e+00 1.269585200000000080e+00 1.064035800000000087e+00 1.024200999999999917e+00 1.013956999999999997e+00 5.111566100000000112e-01 -2.283953299999999867e-02 -4.998179500000000247e-02 -2.206595000000000084e-01 -3.037711000000000161e-01 -2.069487000000000132e-01 -3.273993499999999779e-01 -2.155693999999999944e-01 -2.370494200000000107e-01 -2.347839800000000032e-01 -2.228484500000000035e-01 -7.680889300000000308e-02 -3.635081800000000141e-01 -4.894647999999999777e-01 -1.739195400000000113e-01 -2.274867399999999928e-01 -2.680605099999999741e-01 -8.786129500000000592e-02 2.149612899999999993e-01 5.693673200000000101e-01 9.801598900000000336e-01 1.240450000000000053e+00 1.227328299999999928e+00 1.441360299999999928e+00 1.724555599999999966e+00 1.479101500000000069e+00 7.770062300000000199e-01 3.138330200000000181e-02 -1.128428499999999945e-01 1.764519299999999999e-02 -2.815407200000000221e-01 -1.711291799999999919e+00
0.000000000000000000e+00 -8.691820000000000102e-01 -2.206586499999999784e+00 -2.989570899999999920e+00 -3.510035400000000028e+00 -3.289364200000000071e+00 -3.007314800000000066e+00 -2.240610900000000072e+00 -1.711584599999999901e+00 -1.805549999999999988e+00 -1.418331599999999915e+00 -9.017339500000000063e-01 -7.682526899999999603e-01 -8.757567299999999832e-01 -9.486033200000000276e-01 -7.748953100000000038e-01 -8.208824200000000015e-01 -9.686829399999999923e-01 -8.352628300000000117e-01 -8.638351800000000358e-01 -8.754455700000000062e-01 -7.990286800000000467e-01 -8.064480299999999824e-01 -8.105020499999999739e-01 -8.338358900000000240e-01 -7.570483500000000365e-01 -7.362974700000000094e-01 -8.062622099999999792e-01 -8.831328099999999903e-01 -9.134662300000000457e-01 -7.774533799999999717e-01 -8.524951400000000401e-01 -9.405165300000000173e-01 -9.328047099999999814e-01 -8.805063100000000142e-01 -7.732536399999999643e-01 -9.586438200000000354e-01 -9.195376600000000344e-01 -7.998000299999999951e-01 -8.343903999999999765e-01 -8.547129399999999766e-01 -8.558309899999999582e-01 -6.721642799999999474e-01 -6.610922700000000374e-01 -5.069780600000000081e-01 -3.553953899999999777e-01 -4.217706099999999902e-01 -5.362516299999999791e-01 -3.259631700000000243e-01 -3.171700700000000261e-01 -3.773056599999999872e-01 -3.298911700000000113e-01 -1.764936000000000005e-01 -1.957094000000000056e-01 -1.604057000000000122e-01 -1.492458399999999907e-01 -1.240914399999999973e-01 -2.844690500000000150e-02 2.618007500000000057e-02 -1.500724900000000028e-01 -1.539377899999999910e-01 -1.460404700000000056e-01 -2.165746299999999833e-02 -1.430600500000000011e-02 3.925743899999999814e-02 2.049353899999999951e-01 1.160246399999999983e-01 8.430410700000000312e-02 1.112389399999999945e-01 2.127299800000000130e-01 2.616379799999999922e-01 1.353691900000000004e-01 3.007452600000000142e-01 4.514394400000000251e-01 4.035721299999999734e-01 4.838378400000000190e-01 5.139102399999999626e-01 5.686386500000000233e-01 5.370227800000000329e-01 4.188519399999999782e-01 3.709614199999999862e-01 3.771601600000000221e-01 4.755395299999999881e-01 4.964249099999999970e-01 4.727351000000000192e-01 4.467828500000000091e-01 4.683968299999999862e-01 5.078228799999999765e-01 5.398137499999999811e-01 4.526618600000000270e-01 5.389726799999999818e-01 3.985502300000000053e-01 4.624557699999999882e-01 5.168629399999999929e-01 4.685987099999999739e-01 5.557763599999999693e-01 6.297314400000000312e-01 7.731484299999999976e-01 8.880669100000000427e-01 8.031765800000000288e-01 7.693694599999999495e-01 1.090630500000000058e+00 1.196969900000000031e+00 1.329643499999999978e+00 1.505015200000000108e+00 1.562884399999999951e+00 1.576081499999999913e+00 1.403269700000000064e+00 1.285820699999999928e+00 1.104724500000000109e+00 1.121968000000000076e+00 9.528053300000000059e-01 7.832092800000000077e-01 6.094610000000000305e-01 3.425180700000000078e-01 4.050353800000000004e-01 4.564467400000000175e-01 5.019135200000000019e-01 5.232807400000000220e-01 4.345320300000000135e-01 4.357286699999999846e-01 5.888171500000000114e-01 5.589389399999999952e-01 3.661236700000000122e-01 4.178692099999999909e-01 6.278876500000000194e-01 6.854186100000000392e-01 5.993664800000000348e-01 6.144146299999999616e-01 7.286198999999999870e-01 8.721664500000000375e-01 1.166904500000000011e+00 1.296914399999999912e+00 1.288557799999999975e+00 1.533431100000000047e+00 1.509486099999999942e+00 1.390212500000000073e+00 1.365502299999999947e+00 1.322503800000000007e+00 1.852125599999999928e+00 1.541934399999999927e+00
0.000000000000000000e+00 -1.603285600000000088e-01 -2.750066400000000133e+00 -4.259450199999999853e+00 -4.443209999999999660e+00 -3.948841199999999940e+00 -3.149721700000000180e+00 -1.863168600000000064e+00 -1.468180800000000064e+00 -1.229649299999999945e+00 -4.490868399999999871e-01 -1.834521899999999872e-01 -1.587262700000000026e-01 -9.086093800000000220e-02 -1.565966199999999919e-01 -1.887845300000000059e-01 -2.008278500000000022e-01 -2.336219599999999896e-01 -2.108955100000000082e-01 -2.663233500000000142e-01 -2.710698100000000221e-01 -2.957558100000000079e-01 -2.729251400000000105e-01 -2.821786900000000098e-01 -2.563249799999999801e-01 -3.622290699999999863e-01 -3.972839000000000231e-01 -5.062859199999999449e-01 -5.580080699999999672e-01 -5.796665199999999629e-01 -5.774759699999999496e-01 -5.718770899999999768e-01 -7.018460300000000096e-01 -8.362665200000000132e-01 -8.043872699999999876e-01 -7.221364099999999508e-01 -7.839984599999999526e-01 -7.955290400000000206e-01 -8.053239899999999896e-01 -6.950817900000000327e-01 -7.429389199999999471e-01 -6.960240699999999947e-01 -6.479962799999999801e-01 -5.442339200000000377e-01 -4.122439999999999993e-01 -3.048061300000000085e-01 -1.724863899999999894e-01 -1.735267100000000007e-01 -8.690970800000000218e-02 -1.117039600000000049e-01 -5.343093699999999779e-02 3.239392499999999703e-02 4.052545900000000152e-03 1.255539999999999989e-01 4.268848000000000087e-02 4.734665999999999875e-02 8.552476500000000259e-02 1.779834799999999995e-01 2.270156799999999975e-01 2.692197800000000196e-01 1.760802999999999952e-01 2.723223599999999855e-01 2.742739799999999728e-01 2.738208300000000150e-01 2.597654899999999878e-01 3.467817699999999892e-01 4.634513199999999999e-01 4.665294700000000017e-01 4.736208299999999927e-01 4.796564999999999857e-01 4.772803099999999854e-01 5.161213999999999524e-01 6.656908900000000351e-01 5.352051100000000394e-01 5.664343499999999754e-01 6.463526800000000128e-01 5.937481199999999903e-01 5.040907300000000424e-01 5.134254200000000212e-01 5.667842699999999789e-01 5.179752499999999982e-01 4.954721799999999843e-01 5.643886200000000075e-01 4.663514999999999744e-01 4.306593100000000174e-01 3.843910899999999908e-01 3.451606099999999788e-01 3.062915399999999733e-01 2.536518700000000015e-01 2.821164299999999736e-01 3.670457200000000197e-01 3.365095000000000169e-01 2.639052199999999959e-01 2.081660200000000072e-01 1.806228000000000000e-01 2.636448800000000259e-01 3.928434499999999829e-01 5.412689600000000212e-01 8.225094200000000466e-01 8.847137800000000052e-01 1.073248800000000003e+00 1.268218499999999915e+00 1.578378300000000012e+00 1.733411700000000000e+00 1.783095700000000061e+00 1.732312000000000074e+00 1.753786499999999915e+00 1.478286699999999954e+00 1.342751100000000086e+00 1.177456000000000058e+00 8.245016400000000356e-01 4.991937799999999759e-01 7.094673699999999583e-02 -2.940762499999999835e-01 -4.025440699999999761e-01 -3.673236899999999805e-01 -3.447950399999999971e-01 -4.057690999999999937e-01 -3.856104899999999724e-01 -2.354321299999999895e-01 -2.946860199999999930e-01 -3.802524700000000091e-01 -4.393681799999999971e-01 -4.021433600000000053e-01 -3.590659500000000226e-01 -3.828122899999999995e-01 -5.100117800000000257e-01 -3.793859399999999771e-01 -2.699331899999999895e-01 -1.111588200000000054e-01 5.290676899999999794e-01 1.119923800000000025e+00 1.094844300000000104e+00 1.448964300000000094e+00 1.564537899999999926e+00 1.405903099999999961e+00 1.089411499999999977e+00 1.006066899999999986e+00 1.318861199999999956e+00 1.702949700000000011e+00 -5.889085499999999751e-01
0.000000000000000000e+00 -3.522243199999999796e-01 -3.545183000000000195e+00 -4.259744200000000092e+00 -4.601527199999999596e+00 -3.989858100000000185e+00 -2.546429600000000182e+00 -1.817979500000000082e+00 -1.593026199999999948e+00 -4.938953200000000265e-01 -2.025673000000000057e-01 -3.174557199999999968e-01 -2.398718499999999976e-01 -2.591775599999999735e-01 -2.364844200000000007e-01 -2.140932799999999969e-01 -2.215953999999999979e-01 -3.036998799999999776e-01 -2.462923899999999999e-01 -2.885029800000000200e-01 -3.166450000000000098e-01 -4.201190100000000149e-01 -4.003245599999999960e-01 -3.800306299999999804e-01 -5.256280100000000344e-01 -4.529572700000000229e-01 -5.301601799999999809e-01 -6.126785200000000042e-01 -6.731466999999999867e-01 -6.893930900000000417e-01 -7.298907199999999929e-01 -7.850164200000000481e-01 -8.637315300000000251e-01 -8.915699999999999736e-01 -8.742315699999999579e-01 -9.826855700000000082e-01 -7.743445399999999701e-01 -8.032972099999999838e-01 -7.177925000000000555e-01 -6.442685400000000007e-01 -5.785961200000000471e-01 -4.001472699999999993e-01 -3.220660200000000084e-01 -3.187841399999999936e-01 -2.295321399999999956e-01 -2.134904800000000102e-01 -1.254980599999999946e-01 3.247587799999999969e-02 -6.589999700000000182e-02 2.912376800000000127e-02 1.313247700000000073e-01 1.088670100000000002e-01 1.325990099999999894e-01 2.098683000000000076e-01 1.505791999999999964e-01 2.500929700000000255e-01 1.801892499999999953e-01 3.018936700000000029e-01 2.292595699999999959e-01 4.222165399999999735e-01 3.791196299999999852e-01 5.261308000000000096e-01 4.451054400000000189e-01 6.089664599999999872e-01 6.748627699999999452e-01 6.623504999999999532e-01 7.068275000000000530e-01 7.569655299999999976e-01 7.839218900000000101e-01 7.491579400000000222e-01 8.132816800000000068e-01 7.593476599999999799e-01 7.671105299999999572e-01 8.140715800000000169e-01 7.738133099999999764e-01 7.263766900000000470e-01 7.016788000000000469e-01 6.151652300000000073e-01 6.067799000000000387e-01 6.305540099999999981e-01 6.157277399999999679e-01 6.491264799999999502e-01 5.634651800000000099e-01 5.173453199999999974e-01 5.520356199999999491e-01 5.282403300000000357e-01 4.628838200000000014e-01 5.204088000000000047e-01 3.070836000000000121e-01 4.072894200000000131e-01 4.383999299999999932e-01 3.632341800000000176e-01 3.620639600000000180e-01 4.100158600000000098e-01 3.630410000000000026e-01 2.190082899999999944e-01 3.079436099999999787e-01 3.257278299999999960e-01 3.113471700000000064e-01 2.497470900000000049e-01 3.221435300000000113e-01 6.262791300000000172e-01 9.907534300000000460e-01 1.235796600000000023e+00 1.388924100000000106e+00 1.538445700000000027e+00 1.828139699999999923e+00 1.746245199999999942e+00 1.822455299999999889e+00 1.835233399999999904e+00 1.452591100000000024e+00 1.259824300000000008e+00 8.982362600000000086e-01 6.882953899999999514e-01 2.026960800000000007e-01 -2.865948999999999858e-01 -3.304925300000000066e-01 -4.889347499999999735e-01 -4.749778199999999950e-01 -4.470881800000000017e-01 -4.222391699999999970e-01 -4.643567200000000006e-01 -4.864990699999999779e-01 -3.532909300000000030e-01 -5.527030099999999946e-01 -4.285546599999999762e-01 -4.523662399999999750e-01 -4.664108100000000090e-01 -3.037199400000000216e-01 -3.722633100000000139e-01 -3.742700800000000050e-01 -7.044938200000000483e-02 5.850377500000000230e-01 1.161054400000000042e+00 1.174210600000000104e+00 1.175666499999999948e+00 6.448355500000000351e-01 2.254536799999999896e-01 -1.454430100000000115e-01 8.505561299999999658e-01 1.651018300000000050e-01
0.000000000000000000e+00 -7.577743399999999907e-01 -2.456157399999999935e+00 -3.000466199999999972e+00 -3.850536599999999865e+00 -4.197414300000000154e+00 -3.703869500000000148e+00 -2.701365299999999969e+00 -1.870400599999999969e+00 -1.604602099999999920e+00 -8.261723800000000395e-01 -3.997573799999999955e-01 -4.403021500000000032e-01 -3.857284799999999847e-01 -4.496185400000000110e-01 -4.275448700000000213e-01 -4.236070499999999850e-01 -4.284007300000000074e-01 -4.349998999999999949e-01 -4.260244799999999832e-01 -3.861473799999999845e-01 -4.964604799999999818e-01 -6.951878000000000224e-01 -5.117419899999999799e-01 -5.955612200000000023e-01 -4.789856399999999903e-01 -4.129694400000000210e-01 -3.774678499999999937e-01 -4.369331799999999766e-01 -6.146595500000000545e-01 -4.597018299999999780e-01 -5.262685999999999753e-01 -6.854712299999999869e-01 -3.221821300000000110e-01 -3.729399400000000253e-01 -3.842300799999999739e-01 -3.506141999999999870e-01 -3.566939800000000216e-01 -2.446569199999999999e-01 -2.988887700000000258e-01 -3.009679499999999841e-01 -3.055918100000000193e-01 -4.089330500000000201e-01 -4.464413099999999801e-01 -3.901716900000000154e-01 -1.005586900000000061e-01 -1.308674400000000015e-01 -1.913966699999999910e-01 -9.402746300000000557e-02 -9.816814499999999832e-02 -4.405539700000000308e-02 1.945637500000000145e-02 3.897410800000000036e-02 -2.063830300000000020e-02 -3.265115200000000273e-02 3.220389900000000024e-03 2.905992400000000087e-02 5.076892599999999894e-02 7.923658700000000762e-03 1.669745599999999941e-02 -5.714356300000000138e-02 -7.408650600000000336e-03 9.333898999999999668e-02 -5.303497599999999756e-02 2.438388100000000135e-03 1.901737099999999958e-01 2.243778300000000003e-01 1.867897199999999924e-01 1.979299999999999948e-01 1.585320799999999919e-01 1.822473599999999971e-01 1.961795799999999923e-01 2.061789699999999892e-01 3.205413100000000237e-01 3.721303300000000092e-01 4.920676999999999968e-01 4.747788800000000142e-01 4.257389799999999891e-01 6.167812700000000481e-01 7.715837399999999624e-01 7.790972699999999529e-01 6.593283899999999864e-01 6.294287499999999813e-01 5.698733599999999955e-01 6.814864600000000161e-01 6.872462099999999685e-01 7.058026699999999654e-01 6.671550099999999928e-01 5.020303799999999983e-01 6.087006000000000361e-01 6.085140799999999572e-01 5.068893700000000058e-01 4.717365800000000164e-01 3.800440900000000011e-01 4.229053999999999869e-01 5.080125399999999569e-01 6.107576799999999695e-01 6.975786699999999563e-01 8.976985899999999630e-01 9.723762000000000238e-01 1.149706399999999906e+00 1.654632799999999904e+00 1.916059100000000015e+00 2.101608199999999815e+00 2.238685900000000117e+00 2.195908300000000146e+00 1.922059100000000020e+00 1.844444500000000042e+00 1.637005000000000043e+00 1.210155700000000056e+00 9.716606599999999538e-01 5.608689399999999825e-01 1.973041299999999942e-01 -1.013825700000000052e-01 -8.700988299999999620e-02 3.590111700000000322e-02 5.358827299999999877e-02 7.013052699999999806e-02 -8.302347200000000094e-02 -6.097713800000000017e-02 6.591428800000000143e-02 7.418281499999999917e-02 -1.568301500000000015e-01 -1.903403100000000125e-01 -4.098034300000000241e-02 5.225640299999999988e-02 1.384475699999999920e-01 -1.104547599999999991e-01 1.440855799999999909e-01 9.601361800000000057e-01 1.618149899999999919e+00 1.515427400000000091e+00 1.189029600000000020e+00 8.748531800000000080e-01 3.475020899999999857e-01 -1.223752800000000029e-01 -6.255296799999999768e-01 -5.000886199999999837e-01 -3.017251799999999817e-01 -2.115553900000000098e-01 -1.517441999999999958e+00
0.000000000000000000e+00 1.510467599999999910e+00 -2.672959400000000096e-01 -2.225970400000000016e+00 -3.350706100000000021e+00 -4.310553999999999775e+00 -3.906900499999999887e+00 -2.596504400000000157e+00 -1.800355399999999939e+00 -1.674052499999999943e+00 -8.567218399999999567e-01 -2.437141499999999905e-01 -3.546912500000000135e-01 -4.333844800000000164e-01 -3.941670099999999843e-01 -2.953773100000000040e-01 -2.271548499999999915e-01 -2.608825300000000014e-01 -3.249249300000000007e-01 -3.664728899999999956e-01 -4.428464599999999973e-01 -3.981231800000000209e-01 -4.971699099999999927e-01 -4.906855399999999756e-01 -5.399144399999999955e-01 -4.199435100000000198e-01 -6.891641899999999543e-01 -5.646264100000000230e-01 -6.848648600000000197e-01 -7.212830399999999864e-01 -6.170217399999999852e-01 -7.668558100000000266e-01 -7.281792499999999446e-01 -8.540881299999999454e-01 -8.506615299999999991e-01 -9.312483400000000078e-01 -9.446668599999999971e-01 -9.153277899999999745e-01 -9.823793600000000348e-01 -9.911131699999999878e-01 -9.752094199999999935e-01 -8.881813200000000519e-01 -8.213468999999999909e-01 -8.068672700000000253e-01 -6.327345100000000278e-01 -6.016186799999999613e-01 -4.671112399999999831e-01 -2.929496300000000164e-01 -2.998728500000000241e-01 -3.750697699999999690e-02 -5.815704000000000012e-02 -6.961451700000000076e-02 -5.073756799999999678e-02 5.865558199999999778e-02 5.425581399999999943e-02 5.078889200000000215e-02 6.313318599999999392e-02 5.474233800000000150e-02 1.127564499999999942e-01 2.671710600000000088e-02 1.725603599999999960e-01 1.063183800000000040e-01 9.936915400000000120e-02 2.380092000000000041e-01 1.599378599999999873e-01 2.882434400000000174e-01 3.669986700000000268e-01 3.416854400000000069e-01 5.482411099999999760e-01 3.946303600000000134e-01 5.555295799999999673e-01 5.301919499999999674e-01 5.691334300000000512e-01 5.427065699999999993e-01 6.189331999999999612e-01 5.535605200000000004e-01 5.308027899999999688e-01 5.903595799999999949e-01 5.757688199999999590e-01 5.478586199999999629e-01 5.873230299999999682e-01 5.605675599999999648e-01 5.279124899999999565e-01 4.967514000000000096e-01 5.090940099999999857e-01 5.461901000000000117e-01 5.204727099999999496e-01 4.971294499999999728e-01 4.822002400000000022e-01 3.862225100000000189e-01 4.402973499999999762e-01 3.650039900000000004e-01 4.098988100000000023e-01 3.731591699999999845e-01 3.115863300000000224e-01 2.406121499999999969e-01 1.707785199999999892e-01 3.356032800000000038e-01 3.294537100000000107e-01 3.160670300000000266e-01 3.674133199999999877e-01 5.667317299999999891e-01 7.662380500000000039e-01 1.048329599999999973e+00 1.163223399999999907e+00 1.259060199999999963e+00 1.528572100000000100e+00 1.887901599999999958e+00 2.024314799999999970e+00 2.032643000000000200e+00 1.940891399999999933e+00 1.765828500000000023e+00 1.503456700000000090e+00 1.184037299999999959e+00 8.661799500000000318e-01 5.506742700000000212e-01 -1.079703600000000013e-01 -2.638623500000000233e-01 -3.209884499999999807e-01 -3.883376000000000050e-01 -4.084979799999999828e-01 -3.778786700000000276e-01 -2.634237199999999723e-01 -4.347996700000000270e-01 -4.291742100000000004e-01 -3.719479399999999769e-01 -3.703046199999999732e-01 -3.604882899999999890e-01 -3.170070400000000177e-01 -3.117691200000000107e-01 -3.961500099999999969e-01 -3.501669499999999768e-01 -1.886764099999999889e-01 4.430630999999999875e-01 9.242429399999999573e-01 1.070205499999999921e+00 1.759430899999999909e+00 2.198114100000000182e+00 2.102171100000000070e+00 1.228120099999999937e+00 7.338218800000000375e-01
0.000000000000000000e+00 -1.045234299999999950e+00 -3.624721599999999988e+00 -3.585933400000000049e+00 -3.180906699999999976e+00 -1.817080000000000028e+00 -4.264065000000000216e-01 -4.609859499999999916e-02 3.606498699999999835e-01 1.136212100000000058e+00 1.402585299999999924e+00 1.289922100000000071e+00 1.256121700000000008e+00 1.336551999999999962e+00 1.239310300000000087e+00 1.255138700000000052e+00 1.245889299999999977e+00 1.179801700000000064e+00 1.169221199999999961e+00 9.987272200000000266e-01 9.809571299999999550e-01 9.227544199999999641e-01 8.782096700000000533e-01 8.310035099999999453e-01 8.640597399999999650e-01 6.905643299999999485e-01 6.051054700000000341e-01 4.317085299999999792e-01 4.892547899999999950e-01 5.058118700000000523e-01 2.742367800000000133e-01 2.539804999999999979e-01 2.327053000000000038e-01 1.663528300000000071e-01 1.053536800000000051e-01 -5.867579800000000123e-02 6.452758999999999578e-02 -2.724170299999999819e-03 -1.996100300000000147e-02 4.857104300000000124e-02 1.244566299999999986e-01 1.587615699999999908e-01 1.761668600000000084e-01 2.958164099999999741e-01 3.721413599999999766e-01 3.762169699999999839e-01 4.308792499999999914e-01 4.641236999999999724e-01 4.539700199999999741e-01 4.177519499999999830e-01 4.566120799999999758e-01 5.652741199999999910e-01 4.870410499999999754e-01 4.731847299999999978e-01 4.035001799999999861e-01 3.379826699999999851e-01 3.580498500000000028e-01 2.996221099999999971e-01 4.349229600000000251e-01 4.002631500000000120e-01 3.325490500000000127e-01 4.119186899999999762e-01 2.895117600000000069e-01 2.463300099999999881e-01 2.435575500000000115e-01 2.289765099999999942e-01 3.092882699999999763e-01 3.615078099999999850e-01 4.525294499999999998e-01 4.553228300000000117e-01 4.711254699999999906e-01 4.858149199999999834e-01 4.481099499999999791e-01 4.365502499999999730e-01 3.505072499999999924e-01 3.716138600000000181e-01 4.405229199999999845e-01 3.551220700000000119e-01 3.344366300000000125e-01 3.496760199999999763e-01 3.526887599999999900e-01 2.733729100000000245e-01 6.486326400000000381e-02 -4.762694799999999881e-03 5.091131100000000076e-02 3.527625499999999942e-02 3.560623699999999892e-02 -1.409006800000000073e-02 -9.608958900000000303e-02 -1.419844500000000120e-01 -1.949654200000000004e-01 -1.475692500000000129e-01 -2.067511800000000066e-01 -2.198514000000000024e-01 -8.438847900000000235e-02 9.765118899999999935e-02 3.520427099999999809e-01 4.501707400000000137e-01 5.192484800000000122e-01 7.062513299999999550e-01 9.698987399999999814e-01 1.120825200000000077e+00 1.255943800000000055e+00 1.198124399999999978e+00 1.276937500000000059e+00 9.746623300000000212e-01 7.560972000000000248e-01 4.783419099999999813e-01 2.276874399999999909e-01 1.707482499999999920e-03 -4.549685199999999874e-01 -9.274487799999999726e-01 -1.119804000000000022e+00 -1.257578599999999991e+00 -1.186337799999999998e+00 -1.305306099999999914e+00 -1.215209599999999890e+00 -1.315062799999999976e+00 -1.307056900000000077e+00 -1.297822999999999949e+00 -1.287391100000000010e+00 -1.266925199999999974e+00 -1.296914399999999912e+00 -1.264698600000000006e+00 -1.282209600000000060e+00 -1.306230100000000061e+00 -1.333811599999999986e+00 -1.312482399999999938e+00 -1.029933800000000010e+00 -4.418471800000000060e-01 -1.727664600000000106e-01 -2.357482499999999925e-01 -1.556683700000000004e-01 -2.585197499999999926e-01 -4.541981999999999964e-01 -4.889956599999999987e-01 -6.270339799999999908e-01 1.494987000000000052e-02 -6.936894599999999800e-01 -1.981964099999999895e+00 -5.094437700000000291e+00
0.000000000000000000e+00 -9.961790099999999759e-01 -3.876966499999999982e+00 -4.767525899999999872e+00 -4.599366599999999750e+00 -3.679051299999999802e+00 -2.424450999999999912e+00 -1.518043400000000043e+00 -1.455903200000000064e+00 -5.562482800000000394e-01 -1.521851499999999913e-01 -1.806747599999999898e-01 -2.472986500000000087e-01 -2.229479199999999939e-01 -9.506903299999999377e-03 -1.378127700000000011e-01 -2.717347900000000038e-01 -2.680871599999999910e-01 -2.320948999999999929e-01 -2.643861399999999917e-01 -2.640362700000000173e-01 -2.751583100000000170e-01 -3.998473699999999798e-01 -4.561650300000000269e-01 -4.436674500000000188e-01 -3.961320999999999870e-01 -4.656367799999999724e-01 -3.999342300000000017e-01 -4.408529400000000265e-01 -5.173469800000000118e-01 -4.480398500000000173e-01 -5.554044799999999782e-01 -5.403700799999999749e-01 -5.191785799999999451e-01 -6.574548599999999743e-01 -7.233270800000000111e-01 -7.286658299999999588e-01 -6.689534499999999495e-01 -6.122150800000000226e-01 -5.357916299999999632e-01 -5.599082399999999460e-01 -5.650359600000000038e-01 -6.322857800000000195e-01 -3.328488900000000084e-01 -3.100183499999999981e-01 -2.285696000000000117e-01 -7.847510000000000596e-02 -9.446537200000000578e-02 -2.308486599999999903e-02 1.425102000000000031e-04 -3.060443300000000033e-02 -8.697061200000000269e-02 -4.753085399999999738e-02 5.418535099999999965e-02 -3.470958999999999850e-02 -5.624266599999999498e-04 5.170988800000000246e-02 1.495912899999999879e-01 6.468088399999999405e-02 3.540262000000000270e-02 4.412832499999999950e-03 5.268529200000000162e-02 1.409113399999999960e-01 1.194071599999999983e-01 1.579710099999999950e-01 2.427161100000000127e-01 3.775869600000000270e-01 2.032299200000000083e-01 3.409603099999999887e-01 4.302308200000000138e-01 5.622376799999999619e-01 5.357359900000000508e-01 5.238652900000000390e-01 6.053269500000000303e-01 6.564468900000000051e-01 6.460579699999999814e-01 7.385286100000000298e-01 7.975757999999999459e-01 6.605407300000000204e-01 6.544593499999999953e-01 6.741687100000000044e-01 6.359498000000000095e-01 6.261186600000000491e-01 5.545471699999999782e-01 4.976915100000000036e-01 6.115267899999999868e-01 6.214924899999999530e-01 5.307815399999999961e-01 4.671850000000000169e-01 3.501571700000000176e-01 3.741800800000000260e-01 2.798004700000000233e-01 3.604842200000000219e-01 3.785167300000000234e-01 2.570571999999999857e-01 3.453981500000000149e-01 4.095679999999999876e-01 4.648119099999999948e-01 6.378085900000000086e-01 8.981297200000000203e-01 1.006784600000000029e+00 1.176000300000000109e+00 1.342641200000000090e+00 1.641720199999999963e+00 2.027899999999999814e+00 1.974361400000000044e+00 1.876456200000000019e+00 1.970757400000000104e+00 1.618905500000000108e+00 1.559579100000000107e+00 1.213131200000000076e+00 7.747918400000000094e-01 4.139263699999999879e-01 7.210336099999999949e-03 -2.430296399999999912e-01 -3.245448799999999800e-01 -1.427225199999999916e-01 -1.854282299999999994e-01 -3.813745599999999736e-01 -4.189614700000000025e-01 -3.998701900000000142e-01 -2.065980799999999895e-01 -2.943456300000000248e-01 -3.639422500000000227e-01 -2.594942299999999924e-01 -3.332095299999999760e-01 -1.306757899999999861e-01 -2.473863599999999996e-01 -2.014702300000000001e-01 -1.024401699999999971e-01 4.907938199999999779e-03 7.334112799999999988e-01 1.500003100000000034e+00 1.305794499999999969e+00 1.053689499999999946e+00 8.262264400000000064e-01 2.716385000000000050e-01 -1.276625799999999977e-01 -2.161767699999999903e-01 5.042640400000000245e-01 -7.302857399999999888e-02
0.000000000000000000e+00 2.117790900000000143e+00 7.328061700000000345e-01 -1.847373200000000049e+00 -3.190837099999999982e+00 -4.546535099999999829e+00 -4.604974200000000017e+00 -3.030065500000000078e+00 -1.866594000000000086e+00 -1.857667100000000016e+00 -9.688598499999999669e-01 8.673528599999999478e-02 -8.216700600000000076e-02 1.080839899999999978e-03 2.092925699999999972e-02 -4.322774399999999850e-02 -3.281293500000000141e-02 -1.382267099999999992e-02 -1.028132400000000002e-01 -1.852115699999999990e-02 -8.432592699999999497e-02 -1.806576000000000015e-01 -1.685579799999999961e-01 -2.564283800000000113e-01 -2.208759299999999981e-01 -3.767863799999999763e-01 -3.464936399999999916e-01 -2.502061099999999816e-01 -5.208444700000000038e-01 -5.680263899999999921e-01 -5.275955199999999845e-01 -6.464347499999999469e-01 -7.650444600000000372e-01 -7.628748300000000038e-01 -8.846395900000000312e-01 -1.012474300000000049e+00 -8.540660300000000316e-01 -9.749624500000000360e-01 -1.044925600000000010e+00 -1.094238400000000055e+00 -1.026016599999999945e+00 -1.031334399999999984e+00 -1.087175000000000002e+00 -8.995624199999999737e-01 -9.469740100000000327e-01 -6.618442900000000018e-01 -4.799355399999999938e-01 -2.553136599999999978e-01 -2.218000199999999866e-01 -1.645136799999999955e-01 -3.819118900000000039e-02 9.821333999999999620e-02 7.009603699999999993e-02 3.147955200000000092e-02 1.066593500000000000e-01 9.473409700000000322e-02 2.720754100000000175e-01 3.118259700000000079e-01 2.405182299999999995e-01 1.883960199999999974e-01 6.402471999999999330e-02 2.325086600000000059e-01 2.222688300000000006e-01 3.542763600000000124e-01 2.574421800000000204e-01 3.821574899999999886e-01 3.686784100000000119e-01 3.976353899999999775e-01 4.739486299999999819e-01 3.483750099999999850e-01 4.277582600000000013e-01 4.999887299999999923e-01 5.757935499999999873e-01 5.567123000000000488e-01 4.900576999999999850e-01 6.610987000000000391e-01 6.022676999999999614e-01 6.448232699999999484e-01 5.515757900000000102e-01 6.558423399999999681e-01 5.098634600000000461e-01 5.828449599999999675e-01 7.374770499999999673e-01 6.245435400000000081e-01 5.752050800000000352e-01 6.360500599999999727e-01 5.952230400000000365e-01 4.539365699999999837e-01 4.561271800000000209e-01 4.716732799999999726e-01 4.115343100000000143e-01 3.459387500000000171e-01 3.449154999999999860e-01 3.445087299999999852e-01 2.583614499999999925e-01 2.942027400000000181e-01 2.975696999999999925e-01 1.727944999999999898e-01 2.036540799999999873e-01 1.471519400000000088e-01 3.046398200000000056e-01 4.462825200000000159e-01 6.026129700000000255e-01 8.702827499999999938e-01 9.260893300000000439e-01 9.996102700000000230e-01 1.043642200000000075e+00 1.310866499999999935e+00 1.740867500000000012e+00 1.384919500000000081e+00 1.121145800000000081e+00 9.314200500000000549e-01 8.101474199999999515e-01 6.936286600000000080e-01 6.297829900000000425e-01 4.871258299999999819e-01 1.982806000000000013e-01 -2.289902099999999996e-01 -5.013659900000000391e-01 -5.419754300000000358e-01 -5.848342899999999789e-01 -4.827475700000000147e-01 -5.434041099999999958e-01 -5.866282900000000522e-01 -4.939765899999999932e-01 -5.310782699999999634e-01 -5.583600899999999756e-01 -5.487290799999999802e-01 -4.625379600000000258e-01 -4.313738400000000084e-01 -4.523359699999999761e-01 -3.710845400000000183e-01 2.297666600000000114e-01 7.761285399999999779e-01 1.106945400000000079e+00 1.707207700000000106e+00 2.135618800000000039e+00 2.361279600000000034e+00 1.639976700000000065e+00 6.173271200000000070e-01 1.199067000000000105e+00
0.000000000000000000e+00 -7.553626300000000349e-01 -1.650206300000000015e+00 -2.703964599999999940e+00 -3.556343099999999868e+00 -4.286500400000000432e+00 -4.132507900000000234e+00 -3.611911399999999883e+00 -2.670062499999999783e+00 -1.560002499999999959e+00 -1.199162700000000026e+00 -5.407926499999999859e-01 -6.408179499999999695e-03 1.552943200000000135e-01 4.198642100000000293e-02 -6.967340800000000091e-03 2.893180300000000038e-01 2.622338200000000064e-01 2.251216099999999998e-01 2.106548699999999941e-01 8.735116299999999556e-02 1.182540600000000011e-02 2.059258200000000094e-01 2.293349600000000044e-01 2.294337399999999971e-01 1.552851600000000054e-01 1.310645800000000138e-01 1.513562599999999925e-01 1.153844299999999962e-01 8.881774500000000350e-02 1.544226099999999879e-01 1.473932699999999929e-01 -4.466893999999999899e-03 1.033311900000000033e-01 3.821937400000000040e-02 -4.183533400000000180e-02 -2.154038899999999920e-04 -1.271644199999999968e-02 7.798333799999999927e-02 2.350329800000000025e-01 5.555904500000000135e-02 2.031414299999999978e-02 2.143827600000000055e-01 1.470838999999999896e-01 2.494569600000000054e-01 2.497714400000000112e-01 2.052083899999999905e-01 3.566146399999999828e-01 2.298881700000000028e-01 3.067744399999999816e-01 4.443428700000000009e-01 3.453152700000000075e-01 2.186018000000000128e-01 2.327822300000000066e-01 2.445470299999999986e-01 2.743074500000000082e-01 2.011970200000000042e-01 2.252055400000000096e-01 2.212436999999999876e-01 2.303346900000000086e-01 1.698128299999999979e-01 1.884039000000000130e-01 9.336454299999999429e-02 2.226886299999999985e-01 2.953327499999999772e-01 1.212825299999999995e-01 2.403845099999999957e-01 2.066095099999999962e-01 8.454914800000000452e-02 1.070603700000000019e-01 9.614598800000000167e-02 1.783605199999999946e-01 1.454773500000000053e-01 3.283678199999999769e-01 4.053719700000000259e-01 4.060366899999999779e-01 4.110197600000000118e-01 4.727954500000000060e-01 5.489046100000000150e-01 5.276934800000000481e-01 5.338415499999999980e-01 6.022603800000000396e-01 5.176545999999999648e-01 5.188965899999999909e-01 4.906703800000000171e-01 5.600814899999999597e-01 6.597473600000000049e-01 5.526127600000000362e-01 4.603378100000000139e-01 5.375144200000000483e-01 4.222472500000000184e-01 4.492857399999999890e-01 4.944744600000000045e-01 6.867324099999999598e-01 7.377979700000000252e-01 9.772444099999999523e-01 1.023644199999999893e+00 1.038800399999999957e+00 1.195019199999999948e+00 1.422514400000000068e+00 1.686153400000000024e+00 1.845658000000000021e+00 1.837259100000000034e+00 1.708779300000000001e+00 1.534313800000000061e+00 1.377224699999999968e+00 1.204065799999999964e+00 1.009436299999999953e+00 8.434287499999999493e-01 5.339374099999999457e-01 1.033396899999999979e-01 -2.393381400000000048e-01 -3.977056900000000006e-01 -4.318644400000000161e-01 -4.772977700000000101e-01 -3.248657099999999742e-01 -4.799058800000000069e-01 -5.090966300000000500e-01 -4.956194700000000064e-01 -4.918599499999999902e-01 -5.237866100000000413e-01 -5.578289699999999796e-01 -4.588470099999999996e-01 -4.979613500000000248e-01 -5.239130499999999913e-01 -5.352833700000000361e-01 -5.614892500000000508e-01 -4.001535800000000087e-01 4.037836100000000150e-02 7.975665699999999747e-01 1.000633099999999942e+00 7.232130199999999842e-01 5.410235100000000408e-01 1.005704600000000004e-01 -3.684937500000000088e-01 -1.291762800000000100e+00 -1.771706299999999956e+00 -1.519236500000000101e+00 -1.060773200000000083e+00 -1.202211799999999942e+00 -2.177296699999999863e+00
0.000000000000000000e+00 4.994656499999999832e-01 -9.326132799999999889e-01 -1.892121299999999895e+00 -2.639431699999999825e+00 -2.793013900000000049e+00 -2.365072699999999806e+00 -1.177244200000000074e+00 -6.255761599999999645e-02 2.141530600000000062e-01 7.612163600000000363e-01 1.222762099999999963e+00 1.196659300000000092e+00 1.274880000000000013e+00 1.189602800000000071e+00 1.186685200000000107e+00 1.131095500000000031e+00 1.119749799999999906e+00 1.151736099999999929e+00 1.143511500000000014e+00 1.090073599999999976e+00 1.085446099999999969e+00 1.004781399999999936e+00 1.019261100000000031e+00 8.932412199999999469e-01 8.317183099999999607e-01 8.738292399999999516e-01 7.289430900000000157e-01 7.712286799999999998e-01 6.462078500000000281e-01 5.393442299999999801e-01 5.479455399999999532e-01 4.227198500000000081e-01 3.508692199999999817e-01 4.338729399999999847e-01 3.768175300000000116e-01 3.825693499999999747e-01 2.873292000000000068e-01 3.087803399999999865e-01 3.566875899999999988e-01 4.104010699999999789e-01 4.175480599999999987e-01 3.506995399999999763e-01 4.321643000000000012e-01 3.048306000000000071e-01 4.365335000000000187e-01 5.061944099999999835e-01 5.086045599999999833e-01 5.011330999999999980e-01 5.609182299999999621e-01 6.096835800000000027e-01 6.053475799999999962e-01 5.998278700000000407e-01 5.417861299999999769e-01 4.880908199999999808e-01 4.734661600000000248e-01 2.972108600000000211e-01 3.020284599999999986e-01 3.392216499999999857e-01 3.297205699999999906e-01 3.422112900000000013e-01 3.432837200000000144e-01 2.641298400000000046e-01 2.232664599999999999e-01 1.837729300000000010e-01 2.169094699999999931e-01 1.136009999999999937e-01 1.896910499999999999e-01 2.652828099999999800e-01 2.109487999999999919e-01 2.299242400000000019e-01 1.554290100000000063e-01 1.958846800000000055e-01 2.344189999999999885e-01 2.483887599999999862e-01 4.854091600000000062e-01 4.234686200000000178e-01 4.600285800000000203e-01 4.372612900000000247e-01 3.553377699999999972e-01 3.199992700000000023e-01 2.431567299999999876e-01 3.089584200000000114e-01 1.946720200000000012e-01 2.159616599999999997e-01 1.397253800000000101e-01 1.482017499999999932e-01 1.989707900000000085e-01 1.477088300000000132e-01 -8.080176399999999814e-03 -9.973061799999999311e-02 -1.040399300000000027e-01 -5.112913799999999759e-02 -1.223844099999999921e-02 5.426463699999999751e-02 2.463031499999999985e-01 4.203675000000000050e-01 5.141609900000000399e-01 6.437420200000000259e-01 7.531959200000000187e-01 1.066591899999999926e+00 1.386804300000000101e+00 1.456396199999999919e+00 1.351925000000000043e+00 1.234227299999999916e+00 1.168482500000000091e+00 8.180285099999999865e-01 4.804025100000000048e-01 2.107069099999999973e-01 2.006819099999999911e-02 -2.572124100000000024e-01 -7.607912599999999692e-01 -9.326316700000000237e-01 -1.169761100000000109e+00 -1.224990999999999941e+00 -1.221739300000000084e+00 -1.319863900000000090e+00 -1.304241999999999901e+00 -1.313889400000000096e+00 -1.336484000000000005e+00 -1.334669600000000012e+00 -1.425651100000000060e+00 -1.359688299999999961e+00 -1.566194199999999981e+00 -1.649461300000000019e+00 -1.529459600000000030e+00 -1.416411400000000098e+00 -1.346907999999999994e+00 -1.164134000000000002e+00 -6.238611899999999544e-01 9.430579799999999624e-02 -1.198821500000000068e-01 -6.139956399999999537e-01 -9.974417899999999948e-01 -1.409781699999999915e+00 -1.727467000000000086e+00 -2.127231800000000117e+00 -1.994103399999999970e+00 -1.936971800000000021e+00 -2.201609799999999950e+00 -3.950768800000000081e+00
0.000000000000000000e+00 5.300435000000000008e-01 -2.100879400000000174e+00 -3.329706499999999902e+00 -4.214627000000000123e+00 -3.706060900000000213e+00 -3.023862700000000014e+00 -2.078463199999999844e+00 -8.014785300000000223e-01 -1.792624100000000109e-01 -1.942242200000000030e-01 3.113561300000000087e-01 6.466799199999999637e-01 8.090067100000000178e-01 7.727963300000000313e-01 6.536790399999999890e-01 7.676295199999999541e-01 7.924746700000000477e-01 7.986063599999999596e-01 8.037661499999999570e-01 6.002350300000000027e-01 6.565221100000000476e-01 8.264410399999999601e-01 6.118675000000000086e-01 5.855875200000000280e-01 5.286080800000000357e-01 5.046619199999999861e-01 7.343473299999999648e-01 6.402516099999999710e-01 3.804117900000000274e-01 2.816566099999999739e-01 3.469545799999999847e-02 1.804148700000000050e-01 7.262509099999999718e-01 8.132689199999999508e-01 7.862179599999999935e-01 7.305528900000000103e-01 6.700566900000000103e-01 7.584673800000000243e-01 8.491821999999999981e-01 8.850729699999999589e-01 8.119717499999999921e-01 8.679753599999999736e-01 9.640225599999999728e-01 9.656685799999999986e-01 9.385877999999999721e-01 8.222576200000000224e-01 9.931602999999999959e-01 1.078070499999999932e+00 1.051198400000000088e+00 9.847870199999999574e-01 1.059963800000000012e+00 1.004344499999999973e+00 8.964835599999999571e-01 8.406602499999999978e-01 6.874303499999999678e-01 4.467041800000000062e-01 4.713075400000000248e-01 5.847160799999999714e-01 5.965347199999999628e-01 4.810283899999999724e-01 3.845143100000000258e-01 3.426401399999999819e-01 3.258845799999999793e-01 3.132560500000000081e-01 2.374698399999999876e-01 2.847723799999999916e-01 1.786669800000000030e-01 -1.972610299999999831e-02 -1.576004199999999911e-01 -1.422738100000000006e-01 1.268336899999999989e-02 1.207121500000000042e-01 -1.183912200000000053e-01 -1.943394499999999969e-01 -2.354487500000000122e-01 -2.003118100000000068e-01 -6.215612000000000220e-02 -1.855056700000000114e-01 -7.883228999999999931e-02 -1.118188600000000060e-01 -2.626089899999999866e-01 -1.838171899999999914e-01 -2.362556500000000115e-01 -2.353944099999999984e-01 -2.483441399999999910e-01 -3.323013400000000006e-01 -3.475605700000000131e-01 -3.840236100000000152e-01 -3.987110700000000008e-01 -3.966996099999999803e-01 -3.772408199999999767e-01 -7.017288200000000309e-01 -6.270410499999999887e-01 -3.473493799999999854e-01 -3.730476600000000031e-01 -9.863406800000000529e-02 4.030939499999999613e-03 1.081634499999999943e-01 4.028741499999999864e-01 6.453851499999999630e-01 1.209962200000000099e+00 1.448620100000000077e+00 1.430981599999999965e+00 1.311068300000000075e+00 1.101429900000000073e+00 8.789503899999999703e-01 6.686040500000000053e-01 3.259119100000000269e-01 3.326650400000000229e-02 -3.631446999999999870e-01 -7.876002699999999912e-01 -1.073328099999999896e+00 -1.252478800000000003e+00 -1.160324700000000098e+00 -1.223791000000000073e+00 -1.223811500000000052e+00 -1.296648800000000046e+00 -1.308738200000000074e+00 -1.277379199999999937e+00 -1.154865100000000089e+00 -1.065641099999999897e+00 -1.086295699999999975e+00 -1.039462200000000003e+00 -1.053878400000000104e+00 -9.721550199999999808e-01 -1.034109399999999956e+00 -9.508806100000000150e-01 -6.306688700000000480e-01 -4.235111599999999976e-01 5.238509399999999872e-01 1.135350599999999988e+00 1.214779899999999913e+00 1.315602299999999891e+00 7.122675299999999821e-01 8.635718800000000139e-02 -7.865668300000000501e-01 -1.228187600000000046e+00 -1.254138600000000103e+00 -5.331130699999999667e-01 -2.109292599999999851e+00
0.000000000000000000e+00 -1.909752099999999952e+00 -3.789020299999999786e+00 -4.181720399999999671e+00 -4.250425500000000412e+00 -3.697878799999999799e+00 -2.658393400000000018e+00 -1.654518799999999956e+00 -1.595888500000000043e+00 -9.615555300000000472e-01 -4.568222000000000116e-01 -5.358044499999999877e-01 -4.047056399999999776e-01 -4.040863900000000175e-01 -4.981350999999999973e-01 -4.983160799999999946e-01 -3.375018399999999974e-01 -4.477039700000000066e-01 -4.494630299999999856e-01 -4.640253500000000031e-01 -5.688342800000000254e-01 -4.689444600000000074e-01 -4.878905499999999784e-01 -5.168243999999999616e-01 -4.975965700000000158e-01 -5.922691399999999717e-01 -5.879824000000000161e-01 -6.041891200000000239e-01 -6.603681900000000216e-01 -6.740701700000000240e-01 -7.316058600000000522e-01 -6.931430200000000541e-01 -7.042509700000000317e-01 -8.695013099999999717e-01 -8.515898800000000213e-01 -8.762540699999999960e-01 -9.136760999999999910e-01 -8.306459999999999955e-01 -7.074829799999999835e-01 -6.834883899999999457e-01 -7.966241299999999859e-01 -7.500208099999999822e-01 -6.459442199999999579e-01 -6.173060999999999687e-01 -4.370144599999999935e-01 -4.495836400000000066e-01 -3.387792099999999973e-01 -2.358879399999999904e-01 -6.340666500000000094e-02 -7.077531200000000688e-02 -2.593709900000000165e-02 -9.775588600000000017e-02 -1.314049899999999993e-01 -2.396651299999999832e-02 4.253530099999999758e-02 -1.675582399999999902e-02 -9.321101199999999587e-02 2.200003700000000006e-02 1.878958000000000017e-02 5.122077899999999927e-03 5.578482500000000316e-02 6.639564000000000576e-02 7.910917600000000327e-02 1.904769199999999940e-01 2.375485499999999972e-01 1.728187499999999932e-01 1.497777799999999992e-01 2.016354399999999991e-01 3.519351000000000007e-01 3.632644500000000165e-01 3.365505100000000249e-01 3.897381799999999896e-01 4.169008300000000000e-01 4.876610699999999743e-01 4.917907999999999724e-01 5.615996100000000268e-01 6.015479500000000534e-01 5.966743799999999487e-01 5.064568600000000087e-01 5.667729000000000239e-01 5.880377700000000152e-01 5.824120200000000303e-01 5.603641700000000503e-01 4.998466999999999771e-01 5.117047500000000415e-01 5.768955700000000242e-01 5.256259199999999687e-01 5.324769999999999781e-01 4.049211600000000022e-01 4.029370500000000188e-01 5.028492700000000148e-01 5.637672799999999818e-01 4.389858500000000108e-01 4.783492300000000141e-01 5.376308899999999724e-01 5.197944599999999582e-01 7.133507799999999621e-01 9.292889899999999814e-01 9.893422699999999681e-01 1.148863600000000096e+00 1.307516300000000076e+00 1.373578500000000036e+00 1.532155099999999992e+00 1.597279200000000010e+00 1.618421399999999899e+00 1.562242700000000095e+00 1.371889099999999972e+00 1.256792499999999979e+00 1.228712100000000085e+00 9.903420600000000240e-01 7.016843600000000070e-01 5.609565600000000485e-01 2.894334900000000155e-01 1.374310800000000110e-01 1.111433800000000000e-01 6.587781900000000412e-02 1.149099700000000002e-01 1.404017399999999971e-01 1.289158599999999932e-01 1.607259099999999996e-01 1.038694599999999968e-01 1.131397799999999954e-01 2.454227100000000092e-02 1.250781599999999938e-01 1.386188499999999879e-01 7.747084099999999862e-02 1.725625199999999970e-01 1.759185799999999911e-01 3.484887899999999927e-01 6.158729699999999641e-01 1.033998900000000054e+00 1.224809899999999896e+00 1.133881899999999998e+00 1.325518200000000091e+00 1.321288900000000099e+00 1.225829400000000069e+00 1.046311200000000108e+00 8.909927699999999895e-01 8.471565399999999579e-01 7.955289500000000125e-01 -4.009203499999999809e-01
0.000000000000000000e+00 2.918485900000000188e-01 -2.329533300000000029e+00 -3.567739500000000064e+00 -3.899626299999999990e+00 -3.672189700000000112e+00 -2.764033400000000196e+00 -1.473497800000000080e+00 -1.087937300000000107e+00 -5.430681800000000115e-01 2.775677100000000230e-01 6.778384200000000526e-01 5.897656599999999694e-01 5.356916200000000350e-01 5.737066400000000455e-01 5.107343199999999639e-01 5.023821400000000326e-01 5.106161000000000172e-01 3.852637800000000001e-01 5.420070599999999850e-01 4.275631500000000029e-01 3.423747200000000213e-01 3.607323199999999952e-01 2.617460300000000184e-01 2.546827199999999736e-01 2.251425099999999901e-01 1.233529299999999995e-01 5.903865800000000080e-02 1.053793999999999981e-01 -3.330417199999999994e-02 -3.598490699999999654e-02 -2.235011600000000043e-01 -2.778501099999999835e-01 -3.285548899999999883e-01 -3.817014400000000030e-01 -3.600497400000000070e-01 -3.898833099999999829e-01 -4.512173500000000170e-01 -5.652222199999999974e-01 -5.006013999999999742e-01 -4.668941600000000025e-01 -5.028045100000000378e-01 -4.585016800000000226e-01 -4.338810799999999746e-01 -3.356303500000000217e-01 -3.417190299999999792e-01 -3.698540300000000003e-01 -2.144444199999999967e-01 -1.926908400000000021e-01 -1.230867800000000067e-01 -1.542794700000000019e-01 -1.034521600000000013e-01 5.665885100000000313e-02 1.203542299999999995e-02 -9.159436899999999840e-03 8.248987600000000364e-02 1.439738600000000091e-01 3.522079699999999813e-01 1.779429999999999901e-01 2.308806999999999943e-01 3.045986500000000263e-01 3.014859699999999920e-01 3.338201199999999980e-01 2.841421299999999928e-01 5.132972000000000090e-01 5.281433199999999717e-01 5.651905900000000482e-01 5.594647600000000054e-01 5.582433500000000270e-01 6.773474299999999726e-01 5.984955600000000375e-01 8.242169900000000382e-01 7.992194400000000032e-01 8.023637300000000527e-01 8.940468099999999696e-01 8.732073200000000091e-01 8.880551899999999943e-01 9.822651199999999916e-01 1.085739199999999904e+00 9.983675600000000427e-01 8.136099300000000367e-01 8.653975000000000417e-01 7.508722599999999581e-01 7.745859600000000178e-01 7.630029600000000078e-01 6.932312999999999947e-01 7.326393300000000330e-01 5.860581200000000157e-01 4.311227200000000148e-01 4.079167200000000104e-01 3.191575600000000068e-01 2.780059100000000227e-01 3.322443400000000269e-01 2.417874899999999938e-01 2.447353700000000076e-01 2.804730200000000173e-01 4.890429399999999815e-01 7.091210799999999592e-01 8.183151800000000309e-01 1.015033099999999910e+00 1.142976500000000062e+00 1.493842099999999951e+00 1.691939400000000093e+00 2.065689799999999909e+00 2.018489199999999872e+00 1.867270999999999903e+00 1.682617900000000111e+00 1.398253500000000038e+00 1.254867500000000025e+00 7.936858900000000050e-01 4.206388099999999741e-01 -9.095718900000000773e-03 -6.317025299999999843e-01 -9.991848300000000238e-01 -1.159332100000000088e+00 -1.196869399999999972e+00 -1.240333399999999919e+00 -1.298989600000000078e+00 -1.295465199999999983e+00 -1.267241999999999980e+00 -1.401592900000000030e+00 -1.304575400000000052e+00 -1.340305899999999939e+00 -1.347624099999999991e+00 -1.349905300000000086e+00 -1.341474400000000067e+00 -1.286847199999999969e+00 -1.305402699999999916e+00 -1.296984399999999926e+00 -1.110967700000000002e+00 -6.013879199999999647e-01 1.282880200000000026e-01 1.279553800000000074e-01 3.349708299999999972e-01 4.295686000000000226e-01 4.814045699999999761e-02 -3.146072999999999786e-01 -3.769558900000000157e-01 -6.014075900000000197e-02 8.973863800000000390e-01 -1.199387900000000062e+00
0.000000000000000000e+00 -5.670880200000000260e-01 -2.593450199999999928e+00 -3.874229699999999887e+00 -4.584094900000000194e+00 -4.187448700000000024e+00 -3.151461700000000032e+00 -1.742940200000000051e+00 -1.490658500000000108e+00 -1.183580300000000030e+00 -3.942286899999999927e-01 -2.828967600000000249e-01 -3.569257599999999808e-01 -2.872974500000000098e-01 -3.994888999999999801e-01 -4.732440900000000061e-01 -3.790475799999999951e-01 -3.990390300000000168e-01 -1.785944899999999946e-01 -3.395222600000000202e-01 -4.984472200000000242e-01 -3.372510799999999809e-01 -4.254797799999999741e-01 -4.239522800000000147e-01 -4.631704500000000113e-01 -4.932531499999999736e-01 -5.497489899999999929e-01 -5.298310899999999490e-01 -5.309347800000000506e-01 -5.023649000000000031e-01 -4.173676800000000187e-01 -5.263457299999999561e-01 -4.710049599999999725e-01 -6.767842800000000159e-01 -8.986119299999999477e-01 -6.105710399999999538e-01 -5.301643000000000328e-01 -7.656743799999999878e-01 -5.819372400000000223e-01 -5.378476100000000315e-01 -5.563859799999999467e-01 -4.380234700000000259e-01 -4.362480200000000141e-01 -4.001137499999999902e-01 -1.349865100000000040e-01 -2.393467699999999865e-01 -1.202443900000000065e-01 -1.971404099999999986e-03 2.850004800000000005e-01 3.156457300000000132e-01 1.073640099999999958e-01 1.095214800000000044e-01 1.580784299999999920e-01 2.918977899999999903e-01 2.612944999999999851e-01 1.884071400000000007e-01 1.406513600000000030e-01 2.633654200000000167e-01 2.872070600000000140e-01 3.143172499999999925e-01 1.779423800000000111e-01 1.382900800000000097e-01 3.210686799999999952e-01 4.581677399999999900e-01 2.519161500000000053e-01 2.613529299999999833e-01 2.774875299999999823e-01 2.987932500000000102e-01 4.590753499999999931e-01 4.191466200000000253e-01 5.205089200000000416e-01 5.377611900000000000e-01 6.032107100000000388e-01 4.756339900000000065e-01 5.216928699999999752e-01 7.352483100000000160e-01 7.295410599999999635e-01 7.185233399999999548e-01 4.984331599999999862e-01 5.454409799999999642e-01 6.048266799999999499e-01 5.212963900000000539e-01 3.943806200000000151e-01 4.050202299999999811e-01 5.975630499999999845e-01 5.311300399999999700e-01 3.776509000000000116e-01 4.677009300000000147e-01 4.575693299999999963e-01 3.411160899999999829e-01 4.079131799999999863e-01 4.591269900000000126e-01 4.039366099999999737e-01 2.981911999999999896e-01 4.611005300000000084e-01 6.646590999999999472e-01 5.877572199999999691e-01 7.013247400000000020e-01 9.172045899999999863e-01 1.247987299999999911e+00 1.505567899999999959e+00 1.640105399999999936e+00 1.810987799999999925e+00 2.185397800000000057e+00 2.262984900000000188e+00 2.052920199999999973e+00 1.890487999999999946e+00 1.793033000000000099e+00 1.564784399999999964e+00 1.234618900000000075e+00 9.003020099999999859e-01 5.519571399999999572e-01 2.582216299999999798e-01 -1.285870000000000068e-01 -9.258528700000000222e-02 -1.686062700000000025e-01 -4.959888000000000075e-01 -3.950344800000000212e-01 -3.282383099999999776e-01 -4.481380400000000153e-01 -2.682300899999999766e-01 -4.564148499999999831e-01 -3.578669400000000222e-01 -3.175083300000000053e-01 -4.341122299999999878e-01 -5.492034799999999661e-01 -3.246154900000000065e-01 -2.680823500000000248e-01 -2.203842099999999971e-01 -1.174290499999999932e-01 6.140591600000000483e-01 1.284825399999999895e+00 8.860733600000000321e-01 5.314524000000000470e-01 3.113768399999999881e-01 -2.191895899999999828e-02 -7.136834399999999468e-01 -5.321967100000000173e-01 3.210966299999999940e-01 9.042267299999999786e-01 -4.217965900000000268e-01
0.000000000000000000e+00 -6.589291000000000453e-01 -2.463566000000000145e+00 -3.457372499999999960e+00 -4.214829700000000123e+00 -3.889566999999999997e+00 -3.352373500000000117e+00 -2.284562300000000157e+00 -1.658568100000000101e+00 -1.485838299999999945e+00 -9.050907799999999837e-01 -4.302099600000000024e-01 -4.084332600000000202e-01 -3.089257599999999937e-01 -4.544343100000000080e-01 -5.017786300000000033e-01 -4.009353500000000237e-01 -4.077608799999999922e-01 -3.521636200000000105e-01 -4.350948399999999827e-01 -5.449675600000000175e-01 -4.580691399999999858e-01 -4.667808399999999747e-01 -5.251799499999999510e-01 -5.062248099999999695e-01 -5.598157400000000061e-01 -5.575967200000000457e-01 -6.216915899999999606e-01 -6.871285400000000099e-01 -7.734232800000000463e-01 -7.747630399999999584e-01 -7.597297499999999815e-01 -8.872726800000000358e-01 -9.108155399999999791e-01 -9.185490899999999570e-01 -8.955136999999999681e-01 -9.086543900000000340e-01 -9.429878299999999713e-01 -8.603438399999999708e-01 -8.388324900000000417e-01 -6.877669100000000091e-01 -6.144410799999999728e-01 -4.780596899999999816e-01 -5.263860500000000497e-01 -3.391722600000000032e-01 -3.999070000000000125e-01 -1.961325600000000113e-01 -2.070908300000000035e-01 -1.979880599999999935e-01 -6.088355000000000156e-02 -6.360438999999999676e-02 -1.404920699999999932e-02 -3.201796199999999704e-02 7.061774099999999776e-02 1.309527400000000119e-01 -4.337454100000000257e-02 -3.157875200000000160e-02 6.501218000000000274e-02 9.317496799999999690e-02 1.451913499999999968e-01 5.713021900000000292e-02 9.768371800000000271e-02 2.328243899999999922e-01 1.519351800000000030e-01 1.230958000000000052e-01 2.243391399999999924e-01 2.797372300000000034e-01 3.077798900000000004e-01 3.616417199999999998e-01 4.612221100000000185e-01 3.369444699999999959e-01 5.183562800000000026e-01 5.152247199999999694e-01 5.894960700000000386e-01 6.898834499999999537e-01 4.897945599999999899e-01 3.371729099999999923e-01 5.508914099999999703e-01 5.519316800000000356e-01 6.402835099999999446e-01 6.249765600000000143e-01 5.682230200000000231e-01 6.068605299999999536e-01 4.484216400000000102e-01 6.374735500000000554e-01 6.134973099999999624e-01 4.139718099999999956e-01 5.008626299999999754e-01 4.460758400000000012e-01 5.093522099999999719e-01 4.183964700000000203e-01 3.569968299999999872e-01 4.387799700000000191e-01 4.011991300000000149e-01 4.471466800000000186e-01 5.195591699999999591e-01 6.007296600000000542e-01 7.944111400000000156e-01 8.847337600000000357e-01 8.412525899999999668e-01 1.075193899999999925e+00 1.352570700000000015e+00 1.595532600000000079e+00 1.868625699999999945e+00 2.078472800000000120e+00 2.069935200000000197e+00 1.809087399999999901e+00 1.670864099999999963e+00 1.625000800000000023e+00 1.423305599999999949e+00 1.108940100000000095e+00 5.570414500000000491e-01 1.973991300000000060e-01 7.721898800000000229e-02 -1.141182899999999972e-01 -8.066682399999999808e-02 -6.939119200000000431e-02 -1.904081099999999915e-01 -1.477151999999999910e-01 -8.181065599999999549e-02 -1.091775999999999996e-01 -1.011520199999999953e-01 -2.466381599999999952e-01 -1.125156800000000068e-01 -1.480499700000000030e-01 -1.784418700000000024e-01 -1.361912999999999874e-01 -1.814279000000000031e-01 -8.643393400000000393e-02 2.016885399999999995e-01 6.045487800000000078e-01 1.081002000000000018e+00 9.434468900000000380e-01 1.063496500000000067e+00 1.357332900000000064e+00 1.088888400000000090e+00 8.830904600000000215e-01 8.745173499999999711e-01 7.919941200000000237e-01 1.308132800000000096e+00 5.428007999999999722e-01
0.000000000000000000e+00 6.793982200000000526e-01 -1.636995299999999931e+00 -3.893529399999999807e+00 -4.704563600000000179e+00 -4.184323700000000201e+00 -3.027386700000000097e+00 -2.016966399999999826e+00 -1.776253499999999930e+00 -1.249755500000000019e+00 -4.012544900000000192e-01 -2.514004899999999765e-01 -3.584734099999999923e-01 -3.267115700000000067e-01 -1.850337599999999916e-01 -2.263736699999999991e-01 -2.125772800000000073e-01 -2.116788699999999912e-01 -2.177330500000000113e-01 -3.101173400000000191e-01 -2.783681299999999914e-01 -3.598777899999999752e-01 -2.865942699999999843e-01 -4.299447200000000024e-01 -4.646054399999999807e-01 -4.508528500000000272e-01 -4.801865399999999950e-01 -6.330798199999999598e-01 -6.613779499999999922e-01 -7.096669199999999789e-01 -7.241948200000000169e-01 -8.020153800000000555e-01 -7.642609200000000103e-01 -8.641997900000000232e-01 -9.388372600000000068e-01 -9.570720299999999625e-01 -1.029479400000000044e+00 -8.642394700000000096e-01 -9.333763499999999658e-01 -9.322701500000000197e-01 -7.628722100000000506e-01 -7.513684499999999655e-01 -5.799315699999999518e-01 -5.352322600000000152e-01 -3.848338800000000171e-01 -2.767717399999999883e-01 -2.751953999999999789e-01 -1.445415899999999976e-01 -6.297092899999999493e-02 1.676779800000000042e-02 -3.629354700000000239e-02 6.516876100000000560e-02 6.883204900000000626e-02 -3.074291299999999932e-03 7.457780099999999912e-02 4.183554800000000018e-02 7.117999799999999433e-02 1.096656000000000020e-01 6.766702700000000459e-02 1.191882600000000042e-01 1.711373499999999936e-01 8.815171800000000391e-02 8.478475900000000121e-02 2.517157099999999814e-01 1.841353000000000018e-01 1.805524199999999913e-01 2.626315200000000072e-01 3.748611099999999974e-01 3.522691399999999806e-01 4.675485200000000230e-01 5.147650499999999463e-01 5.035900399999999610e-01 4.961622099999999924e-01 5.405282599999999826e-01 6.071303999999999590e-01 5.558913399999999561e-01 5.941455500000000223e-01 5.955219699999999561e-01 5.573964099999999533e-01 5.397620899999999722e-01 6.436326900000000073e-01 4.604552199999999984e-01 4.940972499999999878e-01 4.124304300000000145e-01 3.400595699999999777e-01 3.993446600000000180e-01 3.709798000000000262e-01 3.592380900000000099e-01 3.253775600000000101e-01 4.111597300000000010e-01 3.691781000000000090e-01 3.408212099999999856e-01 3.477866000000000013e-01 2.583605099999999877e-01 3.089436600000000088e-01 2.803795499999999774e-01 3.297593999999999803e-01 3.535282699999999778e-01 4.978729900000000153e-01 7.327618299999999474e-01 1.009673999999999960e+00 1.110835299999999970e+00 1.249502099999999949e+00 1.405220700000000100e+00 1.685794199999999909e+00 1.732360899999999981e+00 1.643950299999999975e+00 1.539813700000000063e+00 1.265782500000000033e+00 1.121421500000000071e+00 9.616157800000000311e-01 7.880678500000000142e-01 5.255539399999999972e-01 2.212579000000000073e-01 -1.256827100000000030e-01 -3.430324799999999730e-01 -3.007623099999999772e-01 -3.148681400000000186e-01 -2.627904400000000140e-01 -3.291180699999999848e-01 -2.838715199999999883e-01 -3.137920799999999732e-01 -3.299065199999999809e-01 -3.098424000000000178e-01 -3.069639599999999802e-01 -3.237464700000000084e-01 -2.709899599999999742e-01 -2.447328699999999913e-01 -2.595075099999999968e-01 -2.185405800000000121e-01 7.008174899999999700e-03 6.135751099999999791e-01 9.855845600000000539e-01 1.095911499999999927e+00 1.436058099999999893e+00 1.826282500000000031e+00 1.895189299999999966e+00 1.556008300000000011e+00 1.229552900000000060e+00 1.671255799999999958e+00 1.256455600000000006e+00
0.000000000000000000e+00 -1.435298900000000044e+00 -3.546550499999999939e+00 -3.911444200000000038e+00 -4.102876799999999768e+00 -3.806030199999999919e+00 -3.066825899999999994e+00 -1.950067500000000065e+00 -1.424417999999999962e+00 -1.219562100000000093e+00 -5.189434800000000125e-01 -2.742720599999999842e-01 -3.375897999999999954e-01 -4.113412399999999969e-01 -3.978134999999999866e-01 -3.069797100000000167e-01 -3.052300600000000252e-01 -2.571127999999999747e-01 -3.258741900000000080e-01 -3.147181000000000006e-01 -3.597275899999999860e-01 -3.162998499999999935e-01 -2.851456399999999780e-01 -3.344920299999999957e-01 -4.256701199999999852e-01 -4.265353900000000142e-01 -4.590388899999999772e-01 -4.849699800000000227e-01 -5.191689800000000021e-01 -4.632023599999999797e-01 -5.752860800000000330e-01 -6.616376999999999953e-01 -5.846702700000000474e-01 -6.238169500000000367e-01 -7.303370799999999718e-01 -6.887555499999999942e-01 -6.163047799999999965e-01 -5.831161900000000342e-01 -6.962149199999999594e-01 -6.598772899999999497e-01 -5.338015999999999872e-01 -4.853854699999999855e-01 -4.240194800000000042e-01 -3.902451900000000196e-01 -1.658262199999999964e-01 -1.648521699999999923e-01 -1.328150200000000059e-01 -2.339404000000000136e-02 -1.047947300000000026e-01 -2.770258100000000043e-02 -2.039618099999999934e-02 2.945079399999999889e-02 3.091221900000000120e-02 1.353388999999999981e-03 1.094792200000000021e-01 6.220442699999999964e-02 1.297250100000000017e-01 1.873303600000000013e-01 1.808604500000000059e-01 1.826863499999999974e-01 1.840842000000000034e-01 1.925448700000000068e-01 1.484186399999999906e-01 1.442840999999999985e-01 2.586245099999999741e-01 2.885352199999999812e-01 3.060531599999999908e-01 4.159459099999999743e-01 3.289559499999999970e-01 4.259595600000000148e-01 4.512395299999999998e-01 4.981024299999999849e-01 5.157459599999999478e-01 4.814732700000000087e-01 5.731446100000000543e-01 5.354006500000000335e-01 5.485043800000000136e-01 5.607985399999999565e-01 4.525775499999999951e-01 5.279015299999999522e-01 3.851942999999999895e-01 3.877166400000000013e-01 4.767772800000000255e-01 3.791672600000000060e-01 3.865727400000000258e-01 3.369505099999999809e-01 3.016283699999999790e-01 3.283499300000000121e-01 2.482250900000000093e-01 3.032351799999999931e-01 2.506519099999999778e-01 1.780007500000000131e-01 2.767922400000000227e-01 2.812110800000000022e-01 3.491709499999999800e-01 3.895104500000000081e-01 4.844998500000000097e-01 7.044599499999999459e-01 8.618470900000000379e-01 1.007055699999999998e+00 1.136905199999999949e+00 1.597688800000000020e+00 1.773648399999999903e+00 1.914910899999999971e+00 2.003404399999999974e+00 2.036395600000000083e+00 1.839053100000000107e+00 1.572258799999999956e+00 1.440578200000000031e+00 1.123738899999999985e+00 7.242561299999999980e-01 3.084446900000000213e-01 -3.686108300000000282e-02 -2.415000700000000111e-01 -3.229495900000000086e-01 -3.412993599999999961e-01 -2.762157100000000032e-01 -3.019838100000000192e-01 -4.000714699999999846e-01 -2.521379999999999733e-01 -2.540798699999999855e-01 -2.320157599999999876e-01 -3.156956499999999943e-01 -3.167189999999999728e-01 -2.937588600000000105e-01 -2.542098700000000044e-01 -1.591856299999999946e-01 -1.965762899999999869e-01 -1.200954500000000064e-01 1.816719900000000054e-01 7.958020399999999883e-01 1.245039000000000007e+00 1.241315699999999911e+00 1.564053899999999997e+00 1.577190099999999928e+00 1.184676599999999969e+00 7.740533299999999839e-01 7.291165299999999849e-01 1.195804599999999995e+00 1.209711399999999992e+00 -1.043227499999999974e+00
0.000000000000000000e+00 -8.901207899999999951e-01 -2.962751400000000146e+00 -3.933884799999999959e+00 -4.146722300000000416e+00 -4.018640600000000340e+00 -3.480761199999999889e+00 -2.385852100000000142e+00 -1.719319800000000065e+00 -1.496945799999999993e+00 -8.972580599999999684e-01 -5.069809600000000360e-01 -3.853142999999999985e-01 -4.684989199999999854e-01 -3.672708900000000165e-01 -3.935382700000000233e-01 -3.952009000000000216e-01 -3.187767300000000081e-01 -4.223310699999999751e-01 -3.594453699999999863e-01 -3.396751100000000023e-01 -3.517119599999999902e-01 -4.017549200000000154e-01 -4.075694100000000208e-01 -4.277350100000000266e-01 -3.648087999999999886e-01 -4.813600800000000235e-01 -4.511604100000000117e-01 -4.721361800000000164e-01 -5.641405099999999839e-01 -5.163465299999999703e-01 -6.183475099999999891e-01 -6.559201700000000246e-01 -6.422525900000000121e-01 -6.779461700000000146e-01 -6.375179300000000104e-01 -6.529835699999999576e-01 -5.407094300000000464e-01 -5.896132499999999776e-01 -5.064817799999999925e-01 -5.110702000000000300e-01 -4.330790600000000157e-01 -4.036425599999999836e-01 -3.173106099999999929e-01 -2.810794600000000032e-01 -2.152878099999999961e-01 -1.870103100000000129e-01 -8.505141800000000363e-02 6.213063700000000245e-02 -3.342438999999999827e-02 8.880063200000000434e-02 4.342454999999999926e-02 6.883069799999999572e-02 1.303400299999999956e-01 6.611070500000000572e-02 1.934132500000000088e-01 1.185238099999999933e-01 1.800274000000000041e-01 1.545023100000000038e-01 1.883095800000000042e-01 1.816751699999999969e-01 1.764432800000000079e-01 2.254927200000000076e-01 2.846593099999999987e-01 3.141973399999999916e-01 2.705576299999999934e-01 3.025079900000000044e-01 3.551601899999999867e-01 3.907918499999999962e-01 3.900137300000000029e-01 5.107992599999999772e-01 5.042102899999999499e-01 5.642085000000000017e-01 5.955824100000000065e-01 6.456515299999999735e-01 6.713350300000000548e-01 7.194916500000000381e-01 7.302832999999999686e-01 6.379499100000000089e-01 6.912672199999999600e-01 6.170545600000000297e-01 6.213576699999999731e-01 5.960253199999999696e-01 5.651636799999999461e-01 5.901770400000000416e-01 5.724368800000000368e-01 5.330420900000000239e-01 3.766967099999999902e-01 3.754873300000000080e-01 5.324432099999999446e-01 3.815259300000000131e-01 4.975608300000000095e-01 4.023658500000000249e-01 3.772222100000000022e-01 4.799968199999999907e-01 5.784458399999999889e-01 6.962412500000000337e-01 8.302239999999999620e-01 1.034249500000000044e+00 1.061024200000000084e+00 1.300000700000000009e+00 1.498137800000000075e+00 1.717397199999999957e+00 1.940844400000000025e+00 1.866169600000000095e+00 1.753335400000000099e+00 1.711298399999999997e+00 1.543072500000000069e+00 1.333298000000000094e+00 1.085669500000000065e+00 8.246270100000000491e-01 5.159985599999999950e-01 7.040827900000000417e-02 -1.848548000000000135e-01 -2.212733600000000023e-01 -3.788853699999999991e-01 -3.445522500000000043e-01 -3.991413300000000164e-01 -4.082648099999999780e-01 -3.215865299999999816e-01 -3.706743800000000255e-01 -3.791961500000000096e-01 -3.981324600000000213e-01 -3.895823199999999820e-01 -4.059545700000000146e-01 -3.760943400000000270e-01 -3.525046499999999750e-01 -3.304719099999999798e-01 -3.270182400000000156e-01 -1.115836899999999993e-01 2.923288700000000184e-01 8.635363700000000531e-01 8.608240099999999728e-01 9.585095700000000329e-01 1.015644900000000073e+00 9.576896900000000379e-01 6.304129800000000117e-01 6.507108600000000020e-01 7.307325099999999463e-01 1.364957200000000093e+00 3.554754399999999759e-01
0.000000000000000000e+00 1.331845900000000027e+00 -2.074439600000000106e-01 -2.252336500000000186e+00 -3.725704799999999928e+00 -4.521791999999999589e+00 -4.419638700000000142e+00 -3.862147900000000078e+00 -2.656134199999999890e+00 -1.435204600000000053e+00 -1.236839500000000092e+00 -6.265866799999999515e-01 -7.356424200000000191e-02 -4.421196599999999838e-02 -1.006828699999999938e-01 -6.633737700000000292e-02 -9.449230700000000108e-03 -7.603149300000000554e-02 -1.006806799999999946e-01 -1.235158400000000017e-01 -1.649854900000000124e-01 -1.047354199999999957e-01 -1.059018899999999985e-01 -7.818111699999999442e-02 -2.322534300000000107e-01 -2.931814999999999838e-01 -3.649611500000000119e-01 -3.044518600000000186e-01 -3.562734200000000073e-01 -5.189828899999999745e-01 -3.983657899999999974e-01 -4.142729499999999732e-01 -5.264074800000000387e-01 -6.877118399999999632e-01 -6.603846500000000175e-01 -7.810067600000000221e-01 -7.477706400000000420e-01 -8.146640099999999940e-01 -7.386271699999999996e-01 -6.676336299999999779e-01 -8.052345400000000541e-01 -7.070819900000000491e-01 -6.942859599999999798e-01 -6.321199600000000363e-01 -4.877713100000000135e-01 -5.419159199999999954e-01 -3.853136200000000233e-01 -2.398958399999999991e-01 -2.672470900000000205e-01 -7.428513100000000424e-02 -2.845700300000000155e-02 -1.936544499999999849e-02 3.477814399999999695e-02 -4.811778800000000161e-02 1.254131600000000027e-02 -7.604644500000000418e-03 5.741975700000000182e-02 1.161628499999999981e-01 1.890796800000000000e-01 1.320474500000000107e-01 1.042647800000000013e-01 1.211609099999999967e-01 2.353945899999999869e-01 1.855979700000000010e-01 1.806701300000000121e-01 2.576922899999999905e-01 2.218521200000000138e-01 2.240032200000000029e-01 2.611657399999999796e-01 3.218876500000000251e-01 3.549610699999999897e-01 4.512689100000000231e-01 4.091729199999999955e-01 4.345143399999999989e-01 5.349238299999999890e-01 4.728908900000000082e-01 6.058686100000000296e-01 4.900225300000000117e-01 4.442679399999999723e-01 5.525865399999999594e-01 4.153966000000000047e-01 4.016817300000000146e-01 4.501644599999999885e-01 5.569526500000000491e-01 4.106314099999999745e-01 4.471041399999999832e-01 3.229599000000000220e-01 3.367223899999999825e-01 2.563546099999999828e-01 2.537752300000000183e-01 2.622246100000000246e-01 2.957184400000000268e-01 2.863201799999999797e-01 2.687172700000000081e-01 4.004951999999999956e-01 3.907614500000000102e-01 4.246548900000000071e-01 6.990901899999999447e-01 8.659073400000000253e-01 1.147974100000000108e+00 1.141294000000000031e+00 1.311144300000000040e+00 1.558671700000000104e+00 1.701241000000000003e+00 1.835029400000000033e+00 1.802333799999999986e+00 1.729649200000000109e+00 1.607390199999999991e+00 1.383639700000000028e+00 1.212951899999999972e+00 8.987509700000000379e-01 7.143316400000000455e-01 3.797798600000000246e-01 -4.207927300000000037e-02 -2.692419899999999866e-01 -3.088888599999999873e-01 -3.587745099999999909e-01 -2.363097799999999971e-01 -3.444060600000000139e-01 -3.645646499999999901e-01 -2.638013900000000245e-01 -3.200534400000000224e-01 -3.606768499999999933e-01 -3.292410000000000059e-01 -2.893709700000000051e-01 -3.465174400000000099e-01 -3.139698300000000053e-01 -2.366780400000000062e-01 -2.166698800000000091e-01 -1.969031400000000043e-01 1.462593000000000087e-01 4.643491000000000146e-01 6.899061199999999561e-01 5.290347699999999875e-01 8.421491800000000527e-01 9.982396500000000339e-01 1.160055499999999906e+00 1.301663000000000014e+00 1.127511900000000011e+00 1.511892999999999931e+00 5.569810299999999881e-01
0.000000000000000000e+00 3.634949800000000231e-01 -1.283103600000000011e+00 -3.091527999999999832e+00 -4.216936900000000321e+00 -4.114840199999999726e+00 -3.240708199999999817e+00 -2.270083399999999862e+00 -1.799589300000000058e+00 -1.552192199999999911e+00 -7.898237700000000361e-01 -4.951906300000000205e-01 -4.572801200000000121e-01 -4.653394100000000089e-01 -5.461872199999999733e-01 -5.353576799999999469e-01 -5.360191399999999495e-01 -5.351314900000000430e-01 -5.410800199999999949e-01 -5.172400000000000331e-01 -5.910965700000000433e-01 -5.767344599999999488e-01 -6.140281800000000345e-01 -5.820581700000000414e-01 -5.874802900000000161e-01 -7.150437499999999780e-01 -7.006901399999999613e-01 -7.023242699999999727e-01 -7.080433699999999497e-01 -7.621144300000000094e-01 -7.887117799999999734e-01 -8.160987800000000236e-01 -9.323199800000000481e-01 -9.133088000000000317e-01 -9.624330599999999514e-01 -1.014878900000000028e+00 -9.475458300000000333e-01 -9.031113100000000005e-01 -9.340208500000000136e-01 -8.975990600000000041e-01 -8.334153199999999595e-01 -7.950781099999999491e-01 -6.978967799999999944e-01 -5.581228200000000195e-01 -5.201307800000000148e-01 -3.897235299999999847e-01 -3.598385199999999950e-01 -2.347187500000000038e-01 -2.217671900000000029e-01 -1.541405600000000098e-01 -9.703487600000000601e-02 -2.149241699999999977e-01 -1.464797100000000130e-01 -1.208694899999999961e-01 -1.070299100000000059e-01 -1.191675999999999985e-01 -4.301033399999999729e-02 -3.000823199999999927e-02 -1.039643999999999985e-02 -1.228949500000000028e-01 -1.063204600000000055e-01 2.854701200000000008e-02 3.471770400000000201e-02 5.685724999999999807e-02 2.233029900000000137e-02 7.613167099999999798e-02 1.138800799999999946e-01 2.138438699999999915e-01 2.302187699999999893e-01 3.682649399999999851e-01 4.169022600000000245e-01 3.802990900000000063e-01 4.379708399999999724e-01 4.826045900000000000e-01 4.790812799999999982e-01 6.063152800000000120e-01 5.939122599999999697e-01 4.977523699999999995e-01 6.640390900000000540e-01 6.754039600000000254e-01 6.262763999999999553e-01 5.682596300000000156e-01 5.362869399999999898e-01 5.024271700000000340e-01 4.657384800000000102e-01 5.460572599999999888e-01 4.934184999999999821e-01 5.184493399999999808e-01 4.912720500000000157e-01 4.614686700000000252e-01 3.442036600000000224e-01 2.802200799999999825e-01 4.230188400000000071e-01 4.185941100000000192e-01 4.235846400000000123e-01 3.885246399999999767e-01 4.248812900000000226e-01 4.742761899999999864e-01 6.129769499999999649e-01 9.536413599999999935e-01 1.082135899999999928e+00 1.062905500000000059e+00 1.188129100000000049e+00 1.354252299999999964e+00 1.610430100000000087e+00 1.615286400000000011e+00 1.540256599999999976e+00 1.532382300000000086e+00 1.233199500000000004e+00 1.120484100000000094e+00 1.041314700000000038e+00 9.066478399999999827e-01 6.492700500000000430e-01 4.124085599999999796e-01 2.270631700000000086e-01 6.463153400000000437e-02 7.204574499999999437e-02 -1.359012400000000030e-02 3.092247299999999893e-02 3.451511200000000057e-02 -3.294202699999999873e-02 -5.553855900000000123e-02 2.118739799999999965e-02 1.616862499999999897e-02 -1.001175900000000028e-02 4.276368099999999783e-02 5.228169199999999767e-02 2.934225299999999870e-02 7.338994599999999757e-02 1.427460100000000065e-01 3.019018800000000113e-01 7.900957600000000358e-01 1.394750799999999957e+00 1.611451200000000084e+00 1.949907700000000021e+00 2.308836700000000075e+00 2.069990699999999961e+00 1.576710400000000067e+00 9.705899099999999446e-01 1.040958400000000061e+00 7.648265699999999834e-01
0.000000000000000000e+00 -3.622386400000000006e-01 -1.784479600000000055e+00 -2.508320100000000163e+00 -3.354447899999999816e+00 -4.064444800000000413e+00 -4.082637799999999650e+00 -3.147264499999999909e+00 -1.948188100000000089e+00 -1.615900499999999962e+00 -1.153467599999999926e+00 -5.073488299999999729e-01 -3.820274200000000064e-01 -4.295663299999999962e-01 -4.106477000000000044e-01 -4.118690999999999880e-01 -4.563785699999999834e-01 -4.155293700000000090e-01 -3.384101999999999943e-01 -3.694224700000000028e-01 -4.258357600000000076e-01 -4.273716599999999866e-01 -4.570516800000000157e-01 -4.590077300000000027e-01 -4.278923099999999979e-01 -4.065997900000000165e-01 -5.051470200000000021e-01 -4.286586900000000089e-01 -4.508137700000000025e-01 -4.427943100000000243e-01 -3.529509599999999803e-01 -4.649113200000000168e-01 -4.425816200000000089e-01 -4.738781000000000243e-01 -4.792143700000000006e-01 -4.816195200000000232e-01 -4.168956999999999802e-01 -3.913007600000000252e-01 -4.574587299999999801e-01 -3.671507099999999912e-01 -2.818282699999999918e-01 -2.625032999999999950e-01 -1.998254299999999983e-01 -1.406683699999999870e-01 -7.456673499999999510e-02 -3.628627100000000189e-02 -3.784392699999999943e-02 -4.974830899999999750e-02 -4.494734200000000124e-02 2.396906299999999879e-02 1.243108299999999972e-01 1.090960900000000067e-01 5.436311299999999763e-02 1.561459899999999984e-02 8.481418999999999764e-02 2.272333199999999886e-01 8.030381400000000114e-02 8.695866300000000548e-02 2.017440100000000014e-01 1.355273399999999961e-01 1.397520899999999955e-01 1.492573700000000003e-01 2.692219100000000087e-01 2.366757600000000128e-01 2.331241900000000089e-01 3.359007399999999754e-01 2.205347599999999963e-01 3.300159500000000024e-01 4.313001499999999933e-01 4.239287099999999864e-01 5.311458799999999592e-01 4.352694300000000127e-01 6.265965900000000088e-01 5.543191400000000435e-01 5.226602799999999771e-01 5.722296500000000341e-01 6.065942399999999513e-01 6.137510299999999752e-01 5.917731800000000097e-01 7.087423600000000157e-01 6.430076399999999914e-01 6.012036299999999889e-01 5.999403599999999503e-01 6.075741000000000058e-01 6.702380300000000402e-01 6.488579300000000272e-01 6.172987399999999569e-01 5.712612900000000327e-01 5.283884699999999990e-01 5.324258600000000285e-01 5.268826800000000476e-01 4.246809799999999857e-01 4.775297700000000201e-01 4.200779800000000175e-01 4.820191500000000073e-01 5.078250500000000001e-01 5.529054399999999703e-01 8.190257600000000471e-01 8.845651799999999509e-01 1.165506500000000001e+00 1.334961000000000064e+00 1.517087199999999969e+00 1.870436100000000046e+00 2.028177299999999850e+00 2.106067900000000215e+00 1.971063299999999963e+00 1.866790699999999914e+00 1.665705999999999909e+00 1.528862399999999955e+00 1.348178499999999946e+00 1.107647100000000107e+00 8.349017800000000378e-01 4.633066100000000076e-01 7.831276299999999357e-02 -9.934645000000000281e-02 -2.244698099999999918e-01 -1.606874199999999975e-01 -2.026292399999999883e-01 -2.227694199999999958e-01 -2.130399900000000124e-01 -2.824428099999999886e-01 -1.710129099999999902e-01 -1.487622500000000125e-01 -2.050343299999999869e-01 -1.752225500000000047e-01 -2.412474699999999916e-01 -2.142482900000000079e-01 -1.476739999999999997e-01 -5.669224400000000275e-02 1.851064799999999899e-01 8.404570399999999886e-01 1.658329100000000000e+00 1.568297999999999970e+00 1.050271399999999966e+00 1.065858100000000031e-01 -8.850788400000000333e-01 -1.624498900000000079e+00 -1.720991200000000054e+00 -1.110513599999999990e+00 -2.107024399999999908e-01 -1.141483400000000037e+00
0.000000000000000000e+00 -2.171903000000000028e-01 -1.708694200000000052e+00 -2.800415000000000099e+00 -3.622276700000000016e+00 -3.432675000000000143e+00 -2.874790599999999863e+00 -2.101374999999999993e+00 -1.639644799999999902e+00 -1.561365600000000020e+00 -1.062705199999999905e+00 -7.218854199999999999e-01 -7.761767200000000422e-01 -7.777280100000000251e-01 -7.342679100000000236e-01 -7.513213199999999592e-01 -7.941507399999999661e-01 -7.989437600000000028e-01 -8.101949299999999798e-01 -7.984120700000000292e-01 -7.686710399999999721e-01 -8.522452099999999753e-01 -7.743109099999999634e-01 -7.919797800000000221e-01 -8.020720599999999756e-01 -8.079931000000000196e-01 -8.706200600000000289e-01 -8.846135999999999999e-01 -9.637778099999999570e-01 -9.535337499999999578e-01 -1.000699699999999970e+00 -1.002240000000000020e+00 -9.742156800000000283e-01 -9.455405799999999639e-01 -9.658106300000000033e-01 -9.837100800000000422e-01 -9.673013799999999884e-01 -9.585641799999999879e-01 -8.643072200000000427e-01 -8.650833999999999468e-01 -8.156007899999999644e-01 -7.078822299999999457e-01 -6.904047399999999612e-01 -6.073935900000000387e-01 -5.629342800000000091e-01 -4.263794100000000142e-01 -4.200579199999999735e-01 -3.925484000000000195e-01 -3.729337300000000188e-01 -3.404392399999999763e-01 -3.027583400000000147e-01 -3.314046800000000070e-01 -2.601576500000000181e-01 -2.511880699999999855e-01 -2.390965200000000068e-01 -2.342113500000000126e-01 -2.213019999999999987e-01 -1.717703899999999950e-01 -1.670675100000000024e-01 -1.429704900000000056e-01 -7.846092699999999975e-02 -1.028118900000000030e-01 -9.501087399999999517e-02 -1.685202800000000153e-02 3.564365900000000115e-02 1.705237899999999945e-02 3.622560200000000258e-02 1.536122000000000043e-01 2.347139699999999940e-01 2.452143599999999923e-01 2.789599199999999724e-01 2.805535699999999744e-01 3.441768800000000184e-01 3.760472200000000154e-01 3.823844100000000079e-01 4.079670400000000030e-01 4.982041799999999965e-01 4.375025599999999848e-01 4.694799299999999898e-01 4.415952699999999842e-01 4.378517499999999840e-01 4.203234599999999821e-01 4.006326499999999791e-01 3.861631899999999895e-01 3.828523300000000185e-01 3.611574499999999910e-01 4.074409500000000239e-01 4.056113000000000079e-01 3.535840499999999831e-01 4.355701200000000051e-01 3.568104100000000223e-01 3.941622799999999760e-01 3.822063800000000122e-01 3.931121599999999883e-01 4.268458500000000266e-01 4.325095800000000046e-01 5.040473399999999549e-01 5.760511299999999668e-01 7.532394300000000431e-01 8.599529099999999593e-01 9.846010099999999987e-01 1.099714899999999940e+00 1.242594100000000035e+00 1.464923299999999928e+00 1.472749499999999934e+00 1.497319400000000078e+00 1.436471700000000018e+00 1.405968499999999954e+00 1.235097099999999948e+00 1.106073899999999943e+00 9.520523199999999520e-01 7.904746000000000272e-01 5.930894500000000180e-01 4.557840599999999909e-01 3.555122299999999846e-01 3.872820599999999835e-01 3.696012699999999818e-01 4.248118499999999909e-01 4.096582400000000068e-01 4.005047199999999807e-01 4.364008400000000121e-01 4.731883299999999903e-01 5.113893000000000466e-01 5.038306099999999565e-01 5.465111099999999666e-01 5.589299300000000192e-01 5.838086900000000190e-01 6.458952199999999921e-01 7.085748899999999573e-01 9.233891199999999522e-01 1.425197899999999906e+00 1.731924400000000031e+00 1.841529600000000100e+00 2.169950000000000045e+00 2.260348200000000141e+00 1.973294099999999940e+00 1.532805500000000043e+00 1.314108199999999949e+00 1.346867100000000095e+00 9.589457399999999909e-01 -3.074904900000000052e-01
0.000000000000000000e+00 -1.461036000000000001e+00 -3.694497099999999978e+00 -4.338064499999999768e+00 -4.352149899999999683e+00 -4.027225200000000171e+00 -3.480385899999999921e+00 -2.008747599999999967e+00 -1.313344700000000032e+00 -1.111644999999999994e+00 -4.427951299999999812e-01 -1.173485499999999959e-01 -1.096717999999999998e-01 -2.035288399999999887e-01 -1.367279100000000081e-01 -9.793231900000000378e-02 -1.051736900000000002e-01 -1.156396900000000033e-01 -8.509129099999999946e-02 -8.966189700000000082e-03 -6.788387499999999630e-02 -1.447380199999999950e-01 -9.938744800000000323e-02 -1.568485699999999927e-01 -1.599101300000000114e-01 -1.904216699999999873e-01 -1.905074900000000016e-01 -1.822867300000000079e-01 -2.686254200000000036e-01 -2.980365600000000059e-01 -3.447080399999999933e-01 -4.416078500000000240e-01 -4.765469299999999797e-01 -5.579764999999999864e-01 -5.226191999999999505e-01 -5.118175299999999650e-01 -5.883700899999999567e-01 -5.442974299999999710e-01 -5.626306599999999492e-01 -5.029899300000000295e-01 -4.606965399999999877e-01 -3.967043800000000231e-01 -2.893163400000000052e-01 -2.893260899999999802e-01 -1.965582999999999914e-01 -1.312471000000000054e-01 -7.164411599999999380e-02 8.773100000000000342e-02 8.377636400000000594e-02 1.461179999999999979e-01 4.668632999999999811e-02 4.719214499999999785e-02 6.937625000000000042e-02 1.512089299999999914e-01 5.837330899999999823e-02 1.913659100000000002e-01 1.610848400000000069e-01 1.686651600000000084e-01 2.365452100000000057e-01 1.901891199999999893e-01 1.337405399999999911e-01 1.923321199999999953e-01 2.340864400000000067e-01 2.212123599999999968e-01 3.031743700000000263e-01 2.762488200000000060e-01 2.714172999999999725e-01 3.181884999999999852e-01 3.594340799999999891e-01 4.406756499999999743e-01 5.113135500000000055e-01 4.184928399999999771e-01 4.744835299999999867e-01 4.804712800000000006e-01 4.467375900000000177e-01 5.221223999999999865e-01 6.852772099999999700e-01 5.928458500000000075e-01 5.337290999999999563e-01 5.077280499999999863e-01 6.026319500000000273e-01 5.866821300000000239e-01 5.116012599999999466e-01 5.272900499999999546e-01 4.513443400000000105e-01 4.452752899999999903e-01 3.776584099999999999e-01 3.707417499999999810e-01 4.026800500000000116e-01 3.822817399999999810e-01 3.158684399999999726e-01 3.557264299999999824e-01 3.054872499999999880e-01 2.543896099999999882e-01 2.898233399999999849e-01 4.539690900000000195e-01 5.851001099999999511e-01 6.633071099999999776e-01 8.691852100000000414e-01 9.788899500000000087e-01 1.221090699999999973e+00 1.436077599999999954e+00 1.742006600000000072e+00 1.818092199999999936e+00 1.856099500000000013e+00 1.735236299999999954e+00 1.523167399999999949e+00 1.316560399999999964e+00 1.153116899999999889e+00 9.558321300000000020e-01 6.373300200000000526e-01 2.731787399999999755e-01 -1.801217399999999885e-02 -3.032177400000000134e-01 -3.866690700000000036e-01 -4.088105100000000158e-01 -3.623114800000000191e-01 -3.430524500000000088e-01 -3.962103100000000100e-01 -4.149910199999999882e-01 -4.218731499999999746e-01 -4.675354800000000033e-01 -4.530258500000000077e-01 -3.462662300000000082e-01 -3.932333700000000265e-01 -4.038162599999999824e-01 -3.279962499999999892e-01 -3.068111700000000219e-01 -1.899453700000000023e-01 4.518638299999999663e-02 6.850475400000000104e-01 9.699171599999999449e-01 9.360001500000000307e-01 1.132870100000000102e+00 1.065462600000000037e+00 9.510549099999999756e-01 6.463486200000000403e-01 7.963547899999999791e-01 1.090617799999999971e+00 4.242671800000000215e-01 -1.901421299999999981e+00
